0.0293
0.0293
0.0391
0.0439
0.0439
0.0439
0.0488
0.0586
0.0732
0.0879
0.1123
0.1611
0.1758
0.1709
0.1514
0.1367
0.1123
0.0928
0.1611
0.2686
0.3320
0.1514
-0.2390
-0.6050
-0.8350
-0.9130
-0.9810
-0.9760
-0.9370
-0.8830
-0.7760
-0.6290
-0.4630
-0.3800
-0.2440
-0.1750
-0.1220
-0.0780
0.0049
0.0537
0.0732
0.0830
0.0879
0.0977
0.0928
0.0830
0.0635
0.0488
0.0439
0.0439
0.0293
0.0439
0.0488
0.0537
0.0635
0.0586
0.1074
0.1221
0.1709
0.2002
0.1855
0.1807
0.1807
0.2100
0.2197
0.2148
0.2246
0.2441
0.2734
0.2832
0.2979
0.3174
0.3467
0.3613
0.3760
0.3955
0.4004
0.4053
0.4053
0.3857
0.3613
0.3418
0.3174
0.2979
0.2539
0.2295
0.1904
0.1562
0.1367
0.1318
0.0977
0.0684
0.0586
0.0537
0.0488
0.0342
0.0293
0.0244
0.0244
0.0342
0.0293
0.0244
0.0195
0.0293
0.0391
0.0342
0.0244
0.0195
0.0293
0.0293
0.0342
0.0293
0.0244
0.0244
0.0244
0.0244
0.0049
0.0098
0.0098
0.0146
0.0195
0.0098
0.0049
0.0098
0.0244
0.0244
0.0146
0.0098
0.0195
0.0244
0.0244
0.0293
0.0195
0.0244
0.0293
0.0342
0.0244
0.0146
0.0146
0.0342
0.0244
0.0195
0.0146
0.0195
0.0244
0.0244
0.0195
0.0049
0.0000
0.0098
0.0195
0.0000
-0.0090
-0.0040
0.0098
0.0098
0.0098
0.0049
-0.0040
0.0049
0.0049
0.0049
-0.0140
-0.0140
-0.0090
-0.0140
-0.0140
-0.0140
-0.0240
-0.0240
-0.0140
-0.0190
-0.0340
-0.0340
-0.0190
-0.0090
-0.0140
-0.0190
-0.0190
-0.0090
-0.0040
-0.0040
-0.0090
-0.0140
-0.0140
0.0000
-0.0040
-0.0140
-0.0090
-0.0090
-0.0040
0.0000
0.0049
-0.0040
0.0000
0.0049
0.0049
0.0000
-0.0040
-0.0040
-0.0040
-0.0040
-0.0090
-0.0290
-0.0190
-0.0140
-0.0040
-0.0240
-0.0340
-0.0290
-0.0090
-0.0090
-0.0190
-0.0240
-0.0240
-0.0140
-0.0140
-0.0140
-0.0290
-0.0190
-0.0040
-0.0090
-0.0240
-0.0290
-0.0290
-0.0240
-0.0190
-0.0290
-0.0240
-0.0190
0.0049
0.0244
0.0342
0.0342
0.0537
0.0586
0.0879
0.0879
0.0684
0.0488
0.0488
0.0586
0.0391
-0.0040
-0.0240
-0.0290
-0.0340
-0.0390
-0.0430
-0.0340
-0.0340
-0.0340
-0.0290
-0.0390
-0.0430
-0.0290
-0.0190
-0.0190
-0.0290
-0.0140
-0.0140
-0.0090
0.0049
0.0146
0.0195
-0.0190
0.0049
-0.0290
-0.2490
-0.4490
-0.8150
-1.0250
-1.0640
-0.9610
-0.8150
-0.6150
-0.4050
-0.2970
-0.1510
-0.0730
0.0000
0.0293
0.0488
0.0586
0.0635
0.0635
0.0684
0.0732
0.0781
0.0586
0.0684
0.0830
0.0879
0.0928
0.0928
0.0879
0.1074
0.1123
0.1123
0.1074
0.1221
0.1270
0.1367
0.1318
0.1367
0.1465
0.1562
0.1611
0.1709
0.1709
0.1758
0.1904
0.2051
0.2002
0.2051
0.2002
0.2148
0.2148
0.2197
0.2051
0.2051
0.2051
0.2148
0.2100
0.1953
0.1904
0.1855
0.1904
0.1807
0.1709
0.1514
0.1416
0.1318
0.1221
0.0977
0.0781
0.0732
0.0684
0.0635
0.0391
0.0293
0.0293
0.0293
0.0293
0.0195
0.0146
0.0293
0.0342
0.0342
0.0293
0.0293
0.0293
0.0342
0.0391
0.0342
0.0293
0.0293
0.0342
0.0391
0.0439
0.0293
0.0439
0.0488
0.0537
0.0488
0.0488
0.0439
0.0537
0.0635
0.0537
0.0439
0.0635
0.0635
0.0635
0.0586
0.0488
0.0488
0.0586
0.0879
0.0928
0.0781
0.0781
0.1074
0.1270
0.1123
0.1221
0.1270
0.1465
0.1416
0.1416
0.1465
0.1367
0.1465
0.1416
0.1318
0.1270
0.1025
0.1025
0.0928
0.0830
0.0879
0.0781
0.0879
0.0977
0.1123
0.1172
0.1318
0.1367
0.1416
0.1416
0.1562
0.1318
0.1270
0.1221
0.1123
0.0879
0.0586
0.0537
0.0537
0.0342
0.0293
0.0342
0.0439
0.0342
0.0293
0.0244
0.0195
0.0146
0.0195
0.0244
0.0244
0.0098
0.0195
0.0293
0.0342
0.0391
0.0586
0.0684
0.0781
0.0195
-0.1220
-0.2390
-0.6250
-0.9910
-1.1470
-1.1270
-1.0100
-0.8050
-0.6150
-0.5320
-0.3270
-0.1410
-0.0680
-0.0240
0.0439
0.0684
0.0781
0.0879
0.0977
0.1074
0.1123
0.1074
0.0977
0.1074
0.1172
0.1221
0.1025
0.1172
0.1318
0.1318
0.1367
0.1416
0.1270
0.1416
0.1611
0.1562
0.1611
0.1611
0.1758
0.2002
0.2100
0.2100
0.2002
0.2148
0.2393
0.2539
0.2637
0.2490
0.2637
0.2734
0.2832
0.2832
0.2783
0.2783
0.2832
0.2930
0.2979
0.2734
0.2539
0.2539
0.2344
0.2148
0.1904
0.1709
0.1416
0.1318
0.1074
0.0781
0.0586
0.0488
0.0391
0.0244
0.0049
0.0049
0.0000
0.0146
0.0000
0.0000
0.0049
0.0098
0.0244
0.0244
0.0098
0.0146
0.0293
0.0293
0.0293
0.0244
0.0195
0.0244
0.0342
0.0342
0.0244
0.0293
0.0342
0.0439
0.0488
0.0391
0.0391
0.0391
0.0537
0.0537
0.0439
0.0342
0.0342
0.0537
0.0488
0.0293
0.0342
0.0342
0.0342
0.0293
0.0195
0.0098
0.0146
0.0244
0.0244
0.0049
-0.0090
0.0049
0.0195
0.0049
0.0098
0.0000
0.0000
0.0049
0.0098
0.0049
-0.0040
0.0000
0.0000
0.0098
0.0098
0.0098
0.0244
0.0488
0.0684
0.0684
0.0586
0.0732
0.0879
0.0684
0.0439
0.0293
0.0244
0.0195
0.0049
-0.0190
-0.0430
-0.0480
-0.0480
-0.0340
-0.0290
-0.0480
-0.0390
-0.0480
-0.0480
-0.0530
-0.0630
-0.0730
-0.0730
-0.0530
-0.0580
-0.0680
-0.0580
-0.0530
-0.0340
-0.0140
-0.0040
-0.0630
-0.0920
-0.3320
-0.7320
-0.9320
-1.2010
-1.2640
-1.1030
-0.9860
-0.7760
-0.6050
-0.4100
-0.3120
-0.1660
-0.0920
-0.0390
-0.0090
0.0244
0.0391
0.0342
0.0342
0.0439
0.0537
0.0684
0.0684
0.0635
0.0684
0.0879
0.0928
0.0928
0.0879
0.1074
0.1074
0.1123
0.1074
0.1025
0.1123
0.1221
0.1318
0.1367
0.1172
0.1465
0.1660
0.1758
0.1758
0.1855
0.1953
0.2100
0.2246
0.2295
0.2197
0.2295
0.2393
0.2539
0.2490
0.2588
0.2588
0.2637
0.2734
0.2588
0.2539
0.2393
0.2246
0.2002
0.1807
0.1416
0.1123
0.0977
0.0830
0.0537
0.0293
0.0146
0.0049
0.0098
0.0000
-0.0240
-0.0190
-0.0090
-0.0040
-0.0090
-0.0140
-0.0190
-0.0090
0.0000
0.0000
-0.0090
-0.0140
0.0000
0.0098
0.0195
0.0049
0.0049
0.0049
0.0000
0.0098
0.0049
-0.0040
0.0000
0.0098
0.0000
-0.0040
-0.0090
-0.0090
-0.0090
-0.0090
-0.0090
-0.0290
-0.0240
-0.0240
-0.0190
-0.0290
-0.0390
-0.0430
-0.0480
-0.0480
-0.0580
-0.0680
-0.0730
-0.0730
-0.0630
-0.0580
-0.0730
-0.0630
-0.0430
-0.0480
-0.0530
-0.0580
-0.0680
-0.0680
-0.0680
-0.0580
-0.0830
-0.0920
-0.0970
-0.0780
-0.0730
-0.0830
-0.0780
-0.0630
-0.0240
-0.0190
-0.0090
-0.0040
0.0146
0.0293
0.0146
0.0049
0.0000
0.0049
0.0098
0.0049
-0.0090
-0.0090
-0.0390
-0.0340
-0.0530
-0.0680
-0.0780
-0.0430
-0.0390
-0.0480
-0.0580
-0.0780
-0.0530
-0.0530
-0.0580
-0.0680
-0.0780
-0.0680
-0.0580
-0.0580
-0.0680
-0.0530
-0.0190
-0.0040
-0.0730
-0.0920
-0.2340
-0.5950
-1.0250
-1.1420
-1.2640
-1.2740
-0.9520
-0.8350
-0.6540
-0.4540
-0.2530
-0.1950
-0.0970
-0.0290
0.0049
0.0146
0.0342
0.0439
0.0635
0.0586
0.0537
0.0635
0.0732
0.0781
0.0879
0.0781
0.0830
0.0879
0.0928
0.0977
0.1025
0.0928
0.0977
0.1123
0.1123
0.1123
0.1074
0.1270
0.1367
0.1416
0.1318
0.1465
0.1562
0.1660
0.1807
0.1904
0.1953
0.2051
0.2344
0.2393
0.2441
0.2441
0.2539
0.2637
0.2734
0.2734
0.2588
0.2490
0.2441
0.2295
0.1953
0.1611
0.1514
0.1465
0.1123
0.0732
0.0439
0.0342
0.0244
0.0146
0.0000
-0.0090
0.0000
-0.0140
-0.0190
-0.0240
-0.0290
-0.0140
0.0000
0.0000
0.0098
0.0049
0.0146
0.0391
0.0879
0.1611
0.2832
0.3564
0.5273
0.6885
0.8789
0.9668
1.1084
1.1719
1.1865
1.1182
0.9082
0.6885
0.4736
0.3613
0.1562
0.0000
-0.0870
-0.1070
-0.0390
-0.0580
-0.0480
-0.0290
0.0049
0.0195
0.0049
-0.0140
-0.0780
-0.1020
-0.1020
-0.1120
-0.1310
-0.1510
-0.1610
-0.1610
-0.2000
-0.2490
-0.2680
-0.2730
-0.2730
-0.2880
-0.3170
-0.3320
-0.3760
-0.3510
-0.3710
-0.3660
-0.3510
-0.3410
-0.3510
-0.3560
-0.3660
-0.3800
-0.3850
-0.3900
-0.4050
-0.4100
-0.4100
-0.3950
-0.3760
-0.3460
-0.3360
-0.3320
-0.3120
-0.2780
-0.2490
-0.2440
-0.2340
-0.2000
-0.1750
-0.1660
-0.1510
-0.1310
-0.1070
-0.0920
-0.0680
-0.0530
-0.0530
-0.0480
-0.0290
-0.0140
-0.0040
0.0049
0.0098
0.0342
0.0488
0.0586
0.0830
0.1074
0.1416
0.1709
0.2393
0.3125
0.4297
0.5029
0.6348
0.7520
0.8545
0.9082
1.0449
1.1328
1.1865
1.1963
1.2109
1.1719
1.1133
1.0791
0.8496
0.4541
0.1367
0.0586
-0.0430
-0.0730
-0.0580
-0.0530
-0.0920
-0.1070
-0.1460
-0.1510
-0.1660
-0.1750
-0.1850
-0.1900
-0.2100
-0.2190
-0.2240
-0.2390
-0.2530
-0.2730
-0.2880
-0.2830
-0.3460
-0.3660
-0.3900
-0.4000
-0.4100
-0.4240
-0.4540
-0.4780
-0.4930
-0.4980
-0.4930
-0.4930
-0.5070
-0.5120
-0.5220
-0.5320
-0.5320
-0.5510
-0.5760
-0.5710
-0.5560
-0.5420
-0.5220
-0.5020
-0.4540
-0.3900
-0.3410
-0.3220
-0.2680
-0.2100
-0.1560
-0.1360
-0.1070
-0.0680
-0.0340
-0.0240
0.0000
0.0146
0.0244
0.0244
0.0439
0.0537
0.0391
0.0391
0.0488
0.0488
0.0439
0.0488
0.0342
0.0439
0.0586
0.0537
0.0439
0.0391
0.0488
0.0537
0.0488
0.0537
0.0488
0.0488
0.0439
0.0488
0.0293
0.0244
0.0244
0.0244
0.0146
0.0146
0.0049
0.0000
0.0195
0.0244
0.0195
0.0049
0.0049
0.0098
0.0195
0.0098
0.0000
-0.0040
0.0049
0.0195
0.0098
0.0098
0.0098
0.0146
0.0293
0.0342
0.0195
0.0146
0.0293
0.0293
0.0293
0.0293
0.0244
0.0244
0.0244
0.0195
0.0098
0.0146
0.0293
0.0342
0.0244
0.0195
0.0195
0.0293
0.0293
0.0342
0.0391
0.0293
0.0244
0.0488
0.0488
0.0293
0.0342
0.0391
0.0537
0.0586
0.0488
0.0439
0.0488
0.0586
0.0537
0.0488
0.0439
0.0488
0.0586
0.0635
0.0537
0.0439
0.0488
0.0537
0.0635
0.0537
0.0488
0.0586
0.0635
0.0732
0.0684
0.0635
0.0537
0.0537
0.0732
0.0488
0.0537
0.0488
0.0586
0.0586
0.0488
0.0391
0.0391
0.0537
0.0488
0.0488
0.0439
0.0391
0.0391
0.0586
0.0488
0.0439
0.0391
0.0537
0.0488
0.0439
0.0342
0.0293
0.0293
0.0391
0.0488
0.0293
0.0342
0.0488
0.0635
0.0537
0.0488
0.0439
0.0488
0.0537
0.0537
0.0439
0.0342
0.0488
0.0488
0.0488
0.0342
0.0391
0.0342
0.0439
0.0537
0.0342
0.0293
0.0391
0.0537
0.0488
0.0391
0.0391
0.0342
0.0342
0.0439
0.0391
0.0244
0.0293
0.0391
0.0391
0.0439
0.0293
0.0635
0.0684
0.0879
0.1025
0.1123
0.1172
0.1367
0.1514
0.1318
0.1270
0.1221
0.1270
0.1318
0.1172
0.0879
0.0635
0.0586
0.0635
0.0537
0.0439
0.0488
0.0488
0.0488
0.0342
0.0244
0.0293
0.0244
0.0342
0.0293
0.0342
0.0391
0.0342
0.0586
0.0635
0.0732
0.1025
0.0635
0.0586
-0.0240
-0.2680
-0.6250
-0.8150
-1.0200
-1.0200
-0.8880
-0.7860
-0.5950
-0.4100
-0.2190
-0.1220
-0.0190
0.0586
0.1172
0.1221
0.1318
0.1367
0.1514
0.1660
0.1807
0.1611
0.1465
0.1514
0.1611
0.1709
0.1709
0.1709
0.1660
0.2002
0.2002
0.2051
0.2100
0.2051
0.2295
0.2344
0.2393
0.2441
0.2441
0.2539
0.2734
0.2832
0.2539
0.2734
0.2881
0.2881
0.2832
0.2783
0.2783
0.2832
0.2832
0.2832
0.2637
0.2686
0.2734
0.2783
0.2832
0.2637
0.2539
0.2686
0.2588
0.2490
0.2490
0.2393
0.2295
0.2148
0.1904
0.1758
0.1465
0.1416
0.1270
0.1221
0.1074
0.0928
0.0977
0.0928
0.0879
0.0781
0.0684
0.0732
0.0830
0.0684
0.0781
0.0537
0.0635
0.0635
0.0781
0.0684
0.0586
0.0684
0.0732
0.0781
0.0879
0.0684
0.0781
0.0781
0.0830
0.0781
0.0684
0.0635
0.0635
0.0684
0.0537
0.0488
0.0439
0.0488
0.0537
0.0488
0.0439
0.0439
0.0439
0.0439
0.0439
0.0391
0.0391
0.0391
0.0684
0.0391
0.0342
0.0342
0.0488
0.0635
0.0488
0.0439
0.0391
0.0488
0.0635
0.0586
0.0488
0.0488
0.0732
0.0879
0.0928
0.1074
0.1123
0.1172
0.1221
0.1270
0.1367
0.1074
0.0928
0.1025
0.0781
0.0635
0.0391
0.0244
0.0146
0.0098
0.0000
0.0098
0.0146
0.0146
0.0146
0.0098
0.0049
0.0098
0.0195
0.0146
0.0000
0.0049
0.0098
0.0146
0.0049
0.0049
0.0000
0.0195
0.0098
-0.0090
-0.0580
-0.2240
-0.5560
-0.7370
-1.0790
-1.1710
-1.0880
-0.9910
-0.7860
-0.6050
-0.4240
-0.3170
-0.1410
-0.0580
0.0146
0.0244
0.0391
0.0586
0.0684
0.0781
0.0830
0.0879
0.0928
0.1123
0.1367
0.1318
0.1221
0.1221
0.1270
0.1416
0.1367
0.1270
0.1221
0.1367
0.1465
0.1367
0.1221
0.1514
0.1660
0.1709
0.1807
0.1904
0.2051
0.2100
0.2344
0.2441
0.2441
0.2441
0.2588
0.2734
0.2832
0.2881
0.2832
0.2930
0.2979
0.3027
0.3076
0.2881
0.2783
0.2783
0.2637
0.2246
0.1855
0.1758
0.1514
0.1221
0.0879
0.0732
0.0537
0.0537
0.0293
0.0244
0.0146
0.0098
0.0195
0.0195
0.0244
0.0146
0.0195
0.0244
0.0342
0.0293
0.0244
0.0342
0.0391
0.0439
0.0488
0.0439
0.0391
0.0439
0.0488
0.0439
0.0244
0.0244
0.0342
0.0293
0.0146
0.0049
-0.0040
-0.0040
0.0049
0.0049
0.0000
-0.0090
-0.0140
-0.0090
-0.0870
-0.1120
-0.1020
-0.0480
0.0928
0.1562
0.2197
0.2588
0.3223
0.3564
0.4004
0.4102
0.4297
0.4688
0.5273
0.5615
0.6348
0.6934
0.4150
0.0684
-0.0780
-0.1170
-0.1560
-0.1070
-0.0630
-0.0480
-0.0390
-0.0530
-0.0580
-0.0530
-0.0340
-0.0190
-0.0090
-0.0040
0.0000
-0.0140
-0.0090
-0.0140
-0.0190
-0.0140
-0.0040
-0.0290
-0.0530
-0.0780
-0.0870
-0.0920
-0.1020
-0.1120
-0.1120
-0.1120
-0.1170
-0.1220
-0.1360
-0.1360
-0.1360
-0.1310
-0.1460
-0.1560
-0.1510
-0.1310
-0.1310
-0.1220
-0.1070
-0.0870
-0.0580
-0.0390
-0.0240
-0.0090
0.0146
0.0342
0.0537
0.0586
0.0732
0.0879
0.0928
0.0977
0.0977
0.0928
0.0879
0.0928
0.1025
0.0830
0.0732
0.0684
0.0732
0.0732
0.0684
0.0537
0.0488
0.0439
0.0586
0.0488
0.0342
0.0293
0.0244
0.0342
0.0342
0.0342
0.0244
0.0195
0.0293
0.0293
0.0244
0.0146
0.0244
0.0244
0.0195
0.0195
0.0195
0.0244
0.0391
0.0537
0.0439
0.0488
0.0488
0.0635
0.0635
0.0586
0.0488
0.0488
0.0439
0.0439
0.0439
0.0195
0.0146
0.0146
0.0195
0.0098
0.0049
0.0293
0.0195
0.0244
0.0244
0.0244
0.0195
0.0244
0.0293
0.0244
0.0146
0.0146
0.0244
0.0244
0.0244
0.0195
0.0146
0.0244
0.0244
0.0293
0.0195
0.0195
0.0244
0.0293
0.0195
0.0146
0.0146
0.0195
0.0244
0.0293
0.0342
0.0293
0.0391
0.0488
0.0684
0.0488
0.0391
0.0391
0.0488
0.0488
0.0244
0.0195
0.0146
0.0146
0.0049
-0.0090
-0.0240
-0.0140
-0.0090
-0.0040
-0.0090
-0.0140
-0.0140
-0.0090
-0.0040
-0.0090
-0.0090
-0.0040
0.0049
0.0049
-0.0040
-0.0140
-0.0240
-0.0290
-0.0340
-0.0340
-0.0580
-0.0480
-0.0390
-0.0340
-0.0240
-0.0090
0.0146
0.0293
0.0391
0.0537
0.0488
0.0586
0.0732
0.0781
0.0586
0.0537
0.0586
0.0488
0.0195
0.0146
0.0098
0.0049
0.0000
0.0098
-0.0040
-0.0240
-0.0190
-0.0190
-0.0240
-0.0290
-0.0390
-0.0430
-0.0480
-0.0340
-0.0340
-0.0340
-0.0390
-0.0040
0.0244
0.0342
-0.0190
-0.0040
-0.0730
-0.2050
-0.5460
-0.8980
-1.0640
-1.0880
-0.9370
-0.7520
-0.5710
-0.4680
-0.2580
-0.1070
-0.0240
0.0146
0.0488
0.0781
0.0977
0.0977
0.1025
0.0928
0.1172
0.1318
0.1270
0.1367
0.1172
0.1221
0.1318
0.1367
0.1318
0.1318
0.1465
0.1562
0.1611
0.1562
0.1562
0.1514
0.1660
0.1758
0.1855
0.1611
0.1904
0.1953
0.1953
0.2002
0.1953
0.2100
0.2148
0.2246
0.2246
0.2246
0.2295
0.2197
0.2344
0.2295
0.2295
0.2100
0.2246
0.2197
0.2148
0.2002
0.1904
0.1904
0.1855
0.1660
0.1416
0.1318
0.1270
0.1318
0.1074
0.0977
0.0928
0.0879
0.0928
0.0928
0.0977
0.0830
0.0928
0.0928
0.0977
0.0781
0.0732
0.0635
0.0537
0.0488
0.0391
0.0342
0.0342
0.0488
0.0586
0.0537
0.0488
0.0586
0.0684
0.0684
0.0732
0.0586
0.0635
0.0732
0.0830
0.0635
0.0586
0.0684
0.0732
0.0732
0.0781
0.0781
0.0781
0.0879
0.0977
0.0928
0.0732
0.0879
0.0879
0.0879
0.0879
0.0830
0.0732
0.0684
0.0684
0.0732
0.0537
0.0488
0.0488
0.0830
0.0586
0.0586
0.0537
0.0635
0.0781
0.0781
0.0928
0.1074
0.1221
0.1318
0.1367
0.1123
0.1270
0.1172
0.1074
0.0928
0.0781
0.0732
0.0488
0.0342
0.0195
0.0049
-0.0090
-0.0090
-0.0040
-0.0140
-0.0190
-0.0340
-0.0390
-0.0340
-0.0240
-0.0340
-0.0390
-0.0430
-0.0340
-0.0340
-0.0430
-0.0390
-0.0290
-0.0090
0.0049
-0.0290
-0.0630
-0.1410
-0.4680
-0.6730
-1.0250
-1.1910
-1.2100
-1.0540
-0.8300
-0.6540
-0.4830
-0.3760
-0.2000
-0.0970
-0.0390
-0.0140
0.0195
0.0391
0.0439
0.0439
0.0439
0.0488
0.0488
0.0537
0.0586
0.0488
0.0537
0.0635
0.0732
0.0732
0.0684
0.0635
0.0684
0.0684
0.0830
0.0879
0.1025
0.1318
0.1562
0.1660
0.1660
0.1758
0.1953
0.2051
0.2148
0.2197
0.2148
0.2246
0.2344
0.2490
0.2393
0.2393
0.2490
0.2588
0.2637
0.2588
0.2637
0.2588
0.2686
0.2637
0.2490
0.2246
0.2100
0.2002
0.1904
0.1611
0.1318
0.1172
0.1025
0.0879
0.0684
0.0586
0.0488
0.0488
0.0342
0.0244
0.0098
-0.0040
-0.0090
-0.0090
-0.0190
-0.0290
-0.0340
-0.0290
-0.0190
-0.0240
-0.0240
-0.0190
0.0049
0.0195
0.0293
0.0293
0.0293
0.0391
0.0537
0.0586
0.0391
0.0684
0.0830
0.0928
0.1172
0.1611
0.2002
0.2197
0.2100
0.1953
0.1953
0.1709
0.1416
0.1807
0.2588
0.3027
0.1953
-0.3120
-0.6590
-0.7660
-0.9180
-0.9760
-1.0010
-0.9570
-0.8780
-0.8100
-0.6390
-0.5660
-0.3950
-0.2530
-0.1700
-0.1360
-0.0730
0.0049
0.0732
0.0830
0.1074
0.1367
0.1660
0.1758
0.1807
0.1660
0.1465
0.1416
0.1270
0.1123
0.1172
0.1074
0.1172
0.0732
0.0732
0.0684
0.0684
0.0977
0.1123
0.0928
0.0879
0.1025
0.1318
0.1416
0.1611
0.1807
0.2002
0.2100
0.2539
0.2637
0.2930
0.2979
0.3271
0.3662
0.3857
0.3906
0.3857
0.3857
0.3955
0.3809
0.3418
0.3076
0.2783
0.2686
0.2295
0.1758
0.1465
0.1367
0.1123
0.0830
0.0635
0.0537
0.0293
0.0342
0.0244
0.0146
0.0049
0.0146
0.0244
0.0098
-0.0040
0.0049
0.0000
0.0098
0.0195
0.0146
0.0146
0.0244
0.0391
0.0684
0.0488
0.0488
0.0439
0.0635
0.0537
0.0537
0.0488
0.0391
0.0488
0.0391
0.0244
0.0195
0.0244
0.0244
0.0146
0.0098
0.0000
-0.0040
-0.0040
0.0000
-0.0090
-0.0190
-0.0040
0.0000
0.0049
0.0000
-0.0090
-0.0090
0.0049
0.0146
0.0342
0.0293
0.0439
0.0537
0.0684
0.0684
0.0635
0.0635
0.0732
0.0732
0.0684
0.0586
0.0488
0.0537
0.0586
0.0488
0.0391
0.0342
0.0342
0.0439
0.0537
0.0391
0.0342
0.0391
0.0537
0.0391
0.0244
0.0293
0.0293
0.0342
0.0293
0.0244
0.0195
0.0244
0.0488
0.0391
0.0244
0.0195
0.0439
0.0439
0.0537
0.0439
0.0391
0.0391
0.0391
0.0342
0.0244
0.0195
0.0195
0.0293
0.0244
0.0195
0.0146
0.0098
0.0098
0.0195
0.0244
0.0195
0.0146
0.0244
0.0293
0.0293
0.0342
0.0391
0.0732
0.0879
0.0928
0.0928
0.0879
0.1074
0.1172
0.0928
0.0684
0.0684
0.0635
0.0537
0.0293
0.0000
-0.0140
-0.0190
-0.0090
-0.0140
-0.0340
-0.0290
-0.0240
-0.0340
-0.0340
-0.0390
-0.0390
-0.0390
-0.0290
-0.0340
-0.0390
-0.0430
-0.0340
-0.0240
0.0146
-0.0140
-0.0580
-0.0970
-0.3070
-0.6640
-0.9910
-1.1370
-1.1910
-1.0640
-0.8300
-0.7470
-0.5900
-0.4100
-0.2340
-0.1560
-0.0870
-0.0290
0.0195
0.0342
0.0537
0.0635
0.0586
0.0732
0.0879
0.0977
0.0977
0.0928
0.0879
0.0830
0.0928
0.0830
0.0684
0.0732
0.0830
0.0830
0.0879
0.0977
0.1172
0.1270
0.1416
0.1465
0.1514
0.1562
0.1660
0.1709
0.1660
0.1611
0.1562
0.1514
0.1514
0.1416
0.1270
0.1221
0.1270
0.1318
0.1367
0.1514
0.1562
0.1709
0.1807
0.1758
0.1660
0.1611
0.1514
0.1465
0.1270
0.1123
0.0830
0.0684
0.0537
0.0488
0.0244
0.0049
0.0000
-0.0040
-0.0090
-0.0140
-0.0240
-0.0240
-0.0040
0.0000
-0.0040
0.0000
0.0098
0.0195
0.0293
0.0293
0.0244
0.0391
0.0586
0.0586
0.0488
0.0439
0.0635
0.0635
0.0586
0.0635
0.0586
0.0488
0.0439
0.0488
0.0244
0.0195
0.0293
0.0342
0.0391
0.0342
0.0293
0.0244
0.0293
0.0342
0.0342
0.0293
0.0342
0.0342
0.0391
0.0293
0.0244
0.0293
0.0244
0.0195
0.0000
-0.0140
-0.0290
-0.0390
-0.0480
-0.0480
-0.0780
-0.0830
-0.0780
-0.0830
-0.0870
-0.0870
-0.0780
-0.0780
-0.0530
-0.0390
-0.0340
-0.0240
0.0049
0.0293
0.0391
0.0293
0.0391
0.0537
0.0635
0.0537
0.0342
0.0244
0.0195
0.0244
-0.0190
-0.0480
-0.0630
-0.0730
-0.0870
-0.0970
-0.1070
-0.1120
-0.1170
-0.1120
-0.1020
-0.1070
-0.1120
-0.0970
-0.0830
-0.0780
-0.0780
-0.0780
-0.0780
-0.0630
-0.0390
-0.0340
-0.0730
-0.0920
-0.0830
-0.2830
-0.6540
-0.8640
-1.1420
-1.2150
-1.0690
-0.9760
-0.7660
-0.6000
-0.3460
-0.2630
-0.1410
-0.0780
-0.0290
-0.0040
0.0146
0.0293
0.0146
0.0146
0.0293
0.0439
0.0488
0.0488
0.0488
0.0732
0.0879
0.0879
0.0781
0.0781
0.0879
0.1025
0.0928
0.0879
0.0928
0.0977
0.1025
0.1074
0.1074
0.1025
0.1172
0.1367
0.1416
0.1416
0.1514
0.1709
0.1904
0.2002
0.2002
0.2197
0.2295
0.2344
0.2490
0.2539
0.2441
0.2490
0.2734
0.2686
0.2539
0.2441
0.2393
0.2246
0.2100
0.2002
0.1709
0.1611
0.1416
0.1416
0.1270
0.1074
0.1025
0.1123
0.1172
0.0977
0.0781
0.0781
0.0830
0.0732
0.0879
0.0391
0.0537
0.0586
0.0537
0.0439
0.0391
0.0488
0.0342
0.0488
0.0439
0.0244
0.0293
0.0293
0.0342
0.0391
0.0293
0.0244
0.0244
0.0391
0.0439
0.0293
0.0195
0.0293
0.0342
0.0195
0.0244
0.0244
0.0195
0.0244
0.0244
0.0146
0.0098
0.0098
0.0146
0.0098
0.0049
-0.0040
-0.0090
0.0000
-0.0040
-0.0040
-0.0090
-0.0090
0.0000
-0.0040
-0.0190
-0.0290
-0.0290
-0.0140
-0.0140
-0.0190
-0.0340
-0.0290
-0.0140
-0.0140
-0.0090
-0.0040
0.0293
0.0439
0.0586
0.0586
0.0635
0.0586
0.0830
0.0537
0.0586
0.0391
0.0244
0.0244
0.0098
-0.0040
-0.0190
-0.0290
-0.0190
-0.0140
-0.0240
-0.0340
-0.0430
-0.0390
-0.0480
-0.0480
-0.0680
-0.0730
-0.0580
-0.0580
-0.0680
-0.0730
-0.0780
-0.0730
-0.0480
-0.0090
-0.0430
-0.0680
-0.1310
-0.3460
-0.7220
-0.9270
-1.2150
-1.2350
-1.0880
-0.9710
-0.7710
-0.5950
-0.4000
-0.2970
-0.1460
-0.1070
-0.0430
-0.0240
0.0049
0.0244
0.0293
0.0195
0.0293
0.0488
0.0586
0.0586
0.0586
0.0684
0.0879
0.0879
0.0928
0.0830
0.0879
0.0928
0.0928
0.0879
0.0830
0.0879
0.1074
0.1221
0.1172
0.1270
0.1514
0.1709
0.1807
0.1855
0.1904
0.2002
0.2295
0.2344
0.2393
0.2295
0.2344
0.2393
0.2539
0.2588
0.2490
0.2539
0.2734
0.2832
0.2539
0.2441
0.2393
0.2148
0.1953
0.1807
0.1416
0.1074
0.0830
0.0684
0.0439
0.0049
-0.0290
-0.0390
-0.0580
-0.0780
-0.1070
-0.1170
-0.1220
-0.1220
-0.1270
-0.1360
-0.1410
-0.1360
-0.1310
-0.1310
-0.1310
-0.1360
-0.1170
-0.0970
-0.0780
-0.0680
-0.0580
-0.0480
-0.0290
-0.0430
-0.0580
-0.0680
-0.0730
-0.0730
-0.0680
-0.0870
-0.1020
-0.1170
-0.1120
-0.1220
-0.1310
-0.1310
-0.1310
-0.1270
-0.1220
-0.1310
-0.1410
-0.1360
-0.1310
-0.1270
-0.1310
-0.1310
-0.1170
-0.0920
-0.0730
-0.0580
-0.0340
-0.0090
0.0244
0.0391
0.0488
0.0342
0.0391
0.0342
0.0244
0.0049
-0.0190
-0.0290
-0.0290
-0.0290
-0.0290
-0.0290
-0.0190
0.0098
0.0293
0.0391
0.0342
0.0439
0.0439
0.0488
0.0537
0.0342
0.0391
0.0439
0.0732
0.0879
0.0830
0.0879
0.1074
0.1270
0.1416
0.1025
0.1025
0.0879
0.0977
0.0879
0.0635
0.0439
0.0391
0.0537
0.0537
0.0586
0.0488
0.0488
0.0391
0.0244
0.0098
0.0049
-0.0140
-0.0190
-0.0340
-0.0430
-0.0530
-0.0580
-0.0630
-0.0580
-0.0290
-0.0290
-0.0680
-0.0830
-0.2580
-0.6200
-0.9910
-1.1620
-1.2400
-1.1520
-0.9270
-0.8250
-0.6390
-0.4490
-0.2530
-0.1610
-0.0870
-0.0240
0.0293
0.0342
0.0488
0.0488
0.0488
0.0488
0.0586
0.0488
0.0635
0.0537
0.0488
0.0635
0.0586
0.0586
0.0537
0.0781
0.0732
0.0830
0.0928
0.0879
0.1074
0.1172
0.1465
0.1318
0.1416
0.1416
0.1465
0.1562
0.1562
0.1611
0.1660
0.1807
0.1953
0.1953
0.1904
0.2148
0.2246
0.2246
0.2393
0.2295
0.2393
0.2393
0.2441
0.2246
0.2148
0.2100
0.2002
0.1709
0.1465
0.1221
0.0879
0.0684
0.0488
0.0391
0.0049
-0.0040
-0.0090
-0.0140
-0.0240
-0.0340
-0.0340
-0.0290
-0.0190
-0.0290
-0.0240
-0.0290
-0.0290
-0.0140
-0.0140
-0.0240
-0.0190
-0.0140
-0.0090
-0.0090
-0.0090
-0.0090
-0.0040
0.0049
-0.0040
-0.0190
-0.0190
-0.0140
-0.0040
-0.0140
-0.0190
-0.0240
-0.0240
-0.0090
-0.0090
-0.0140
-0.0190
-0.0140
-0.0090
-0.0190
-0.0290
-0.0240
-0.0090
-0.0090
-0.0140
-0.0290
-0.0340
-0.0240
-0.0140
-0.0140
-0.0240
-0.0240
-0.0240
-0.0140
-0.0040
-0.0140
-0.0240
-0.0240
-0.0240
-0.0240
-0.0340
-0.0390
-0.0340
-0.0390
-0.0390
-0.0430
-0.0430
-0.0430
-0.0390
-0.0290
-0.0240
-0.0290
-0.0240
-0.0040
-0.0040
-0.0040
0.0000
0.0146
0.0391
0.0537
0.0781
0.0781
0.0928
0.0977
0.1123
0.1123
0.0879
0.0781
0.0635
0.0586
0.0342
0.0098
-0.0290
-0.0480
-0.0580
-0.0630
-0.0830
-0.0730
-0.0580
-0.0530
-0.0480
-0.0480
-0.0430
-0.0390
-0.0240
-0.0290
-0.0340
-0.0340
-0.0290
-0.0240
-0.0140
-0.0090
0.0049
-0.0190
-0.0290
-0.0730
-0.3020
-0.6880
-1.0200
-1.1570
-1.1960
-1.0690
-0.8740
-0.7810
-0.5950
-0.3900
-0.2140
-0.1460
-0.0630
0.0244
0.0586
0.0586
0.0586
0.0684
0.0781
0.0830
0.0928
0.0830
0.0928
0.0928
0.1074
0.1123
0.1172
0.1221
0.1416
0.1367
0.1465
0.1465
0.1367
0.1270
0.1465
0.1465
0.1367
0.1416
0.1660
0.1660
0.1709
0.1855
0.1953
0.2051
0.2295
0.2441
0.2393
0.2490
0.2734
0.2832
0.2783
0.2783
0.2783
0.2783
0.2881
0.2783
0.2588
0.2441
0.2393
0.2344
0.2051
0.1709
0.1514
0.1416
0.1221
0.0977
0.0732
0.0635
0.0439
0.0439
0.0293
0.0146
0.0000
-0.0040
0.0000
0.0000
-0.0140
-0.0090
-0.0190
-0.0140
-0.0040
0.0049
0.0293
0.0537
0.1514
0.2881
0.4346
0.5127
0.6836
0.8789
1.0547
1.1328
1.1426
1.0596
0.8740
0.7617
0.5371
0.3027
0.0928
-0.0040
-0.1560
-0.2100
-0.1510
-0.1460
-0.1360
-0.1070
-0.0780
-0.0680
-0.0530
-0.0430
-0.1020
-0.1170
-0.1360
-0.1510
-0.1560
-0.1560
-0.1700
-0.2000
-0.2240
-0.2340
-0.2530
-0.2580
-0.2490
-0.2440
-0.2290
-0.2140
-0.2340
-0.2440
-0.2530
-0.2440
-0.2290
-0.2190
-0.2390
-0.2780
-0.2970
-0.3070
-0.3270
-0.3460
-0.3660
-0.3610
-0.3560
-0.3560
-0.3560
-0.3510
-0.3410
-0.3270
-0.3070
-0.2930
-0.2680
-0.2390
-0.2000
-0.1900
-0.1750
-0.1560
-0.1170
-0.0970
-0.0780
-0.0630
-0.0580
-0.0530
-0.0390
-0.0290
-0.0390
-0.0430
-0.0340
-0.0190
-0.0190
-0.0190
-0.0140
-0.0040
0.0146
0.0244
0.0391
0.0342
0.0293
0.0342
0.0391
0.0049
-0.0090
-0.0090
-0.0190
-0.0040
-0.0140
-0.0190
-0.0240
-0.0140
0.0049
0.0049
0.0000
0.0146
0.0342
0.0391
0.0439
0.0342
0.0244
0.0195
0.0391
0.0195
0.0098
0.0098
0.0049
0.0244
0.0342
0.0391
0.0293
0.0537
0.0586
0.0537
0.0488
0.0391
0.0342
0.0391
0.0293
0.0195
0.0293
0.0244
0.0195
0.0488
0.0488
0.0537
0.0684
0.0781
0.0732
0.0781
0.0879
0.0684
0.0732
0.0732
0.0635
0.0684
0.0537
0.0586
0.0684
0.0586
0.0488
0.0488
0.0537
0.0635
0.0488
0.0391
0.0342
0.0293
0.0293
0.0244
0.0146
0.0146
0.0195
0.0195
0.0098
0.0049
0.0098
0.0098
0.0098
0.0293
0.0049
0.0098
0.0195
0.0244
0.0098
0.0049
0.0049
-0.0040
0.0000
-0.0040
-0.0140
-0.0190
-0.0240
0.0000
-0.0140
-0.0190
-0.0190
-0.0140
-0.0140
-0.0290
-0.0390
-0.0430
-0.0390
-0.0190
-0.0240
-0.0240
-0.0140
-0.0040
0.0049
0.0049
0.0098
0.0049
0.0049
0.0098
0.0098
-0.0040
-0.0140
-0.0140
0.0049
-0.0040
-0.0140
-0.0140
-0.0140
-0.0040
0.0049
0.0049
0.0000
0.0049
0.0195
0.0195
0.0098
0.0000
-0.0040
0.0049
0.0049
-0.0140
-0.0290
-0.0290
-0.0240
-0.0190
-0.0240
-0.0240
-0.0190
-0.0040
-0.0090
-0.0090
-0.0190
-0.0240
-0.0040
-0.0140
-0.0190
-0.0240
-0.0190
-0.0140
-0.0140
-0.0190
-0.0240
-0.0190
0.0000
0.0293
0.0488
0.0537
0.0586
0.0732
0.0879
0.0879
0.0684
0.0488
0.0244
0.0146
-0.0090
-0.0530
-0.0830
-0.0870
-0.0870
-0.0920
-0.0920
-0.0830
-0.0680
-0.0730
-0.0780
-0.0780
-0.0870
-0.0830
-0.0680
-0.0680
-0.0730
-0.0730
-0.0580
-0.0480
-0.0340
-0.0040
0.0146
-0.0040
-0.0390
-0.1750
-0.4780
-0.6640
-1.0640
-1.2010
-1.1860
-1.0980
-0.9080
-0.7220
-0.5370
-0.4390
-0.2490
-0.1660
-0.0730
-0.0530
-0.0140
0.0049
0.0146
0.0244
0.0439
0.0635
0.0684
0.0684
0.0732
0.0830
0.0928
0.0928
0.0879
0.0830
0.0928
0.0928
0.0928
0.0879
0.0928
0.0977
0.1123
0.1172
0.1074
0.1123
0.1172
0.1318
0.1318
0.1318
0.1416
0.1562
0.1807
0.1904
0.1953
0.1904
0.2197
0.2295
0.2295
0.2246
0.2295
0.2344
0.2393
0.2441
0.2393
0.2393
0.2246
0.2246
0.2197
0.2002
0.1758
0.1611
0.1514
0.1465
0.1025
0.0830
0.0537
0.0488
0.0391
0.0146
-0.0090
-0.0090
0.0000
-0.0040
-0.0140
-0.0140
-0.0140
-0.0190
0.0146
0.0049
-0.0140
-0.0040
0.0098
0.0098
0.0049
0.0000
0.0049
0.0049
0.0098
0.0195
0.0098
0.0146
0.0195
0.0244
0.0342
0.0098
0.0146
0.0195
0.0488
0.0391
0.0293
0.0146
0.0049
0.0000
-0.1120
-0.3460
-0.6780
-0.8590
-1.1270
-1.2250
-1.2450
-1.2250
-1.1470
-0.9660
-0.7610
-0.6980
-0.6150
-0.5420
-0.4340
-0.3760
-0.2440
-0.1070
0.0049
0.0342
0.0830
0.1074
0.1123
0.1074
0.0879
0.0781
0.0781
0.0781
0.0830
0.0879
0.0977
0.0830
0.0830
0.1074
0.1465
0.1709
0.1904
0.2002
0.2197
0.2295
0.2344
0.2344
0.2295
0.2344
0.2539
0.2734
0.2783
0.2783
0.3076
0.3320
0.3613
0.3711
0.3955
0.4199
0.4443
0.4639
0.4834
0.4883
0.5029
0.5078
0.5127
0.4883
0.4541
0.4395
0.4199
0.3857
0.3369
0.3076
0.2637
0.2344
0.2002
0.1758
0.1318
0.0977
0.0928
0.0879
0.0684
0.0439
0.0293
0.0293
0.0244
0.0293
0.0098
0.0098
0.0146
0.0244
0.0244
0.0098
0.0098
0.0098
0.0195
0.0146
0.0049
0.0000
0.0098
0.0098
0.0146
0.0195
0.0098
0.0098
0.0098
0.0098
0.0049
0.0000
0.0049
0.0195
0.0049
0.0049
-0.0040
-0.0090
-0.0140
-0.0140
-0.0140
-0.0240
-0.0240
-0.0190
-0.0090
-0.0040
-0.0190
-0.0090
0.0049
0.0049
-0.0040
-0.0090
-0.0140
-0.0140
-0.0090
-0.0140
-0.0340
-0.0340
-0.0190
-0.0190
-0.0240
-0.0290
-0.0240
-0.0190
0.0000
-0.0040
-0.0190
-0.0140
-0.0090
0.0000
-0.0140
-0.0190
-0.0190
-0.0140
-0.0090
-0.0090
-0.0140
-0.0140
-0.0190
0.0000
0.0000
-0.0140
-0.0140
-0.0140
-0.0090
-0.0090
-0.0040
-0.0140
-0.0190
-0.0040
-0.0040
-0.0140
-0.0190
-0.0040
0.0049
0.0098
-0.0040
0.0000
-0.0090
0.0000
0.0146
-0.0040
-0.0140
-0.0090
-0.0040
-0.0090
-0.0090
-0.0140
-0.0140
-0.0040
0.0000
0.0049
-0.0040
0.0049
0.0146
0.0098
0.0049
-0.0040
-0.0090
-0.0090
-0.0040
-0.0040
-0.0140
-0.0140
-0.0090
0.0000
-0.0090
-0.0090
-0.0090
0.0049
0.0049
-0.0040
-0.0140
-0.0240
-0.0240
-0.0090
-0.0090
-0.0190
-0.0190
-0.0140
-0.0090
-0.0140
-0.0040
-0.0140
-0.0140
-0.0040
-0.0040
-0.0090
-0.0140
-0.0040
0.0098
0.0195
0.0342
0.0537
0.0732
0.0781
0.0879
0.0928
0.0879
0.0830
0.0879
0.0635
0.0439
0.0293
0.0000
-0.0190
-0.0240
-0.0190
-0.0430
-0.0240
-0.0090
-0.0190
-0.0340
-0.0390
-0.0290
-0.0240
-0.0290
-0.0190
-0.0290
-0.0290
-0.0140
-0.0040
-0.0040
-0.0040
0.0342
0.0293
0.0049
0.0000
-0.1310
-0.4340
-0.7910
-0.9610
-1.0690
-1.0100
-0.8300
-0.7220
-0.5320
-0.3460
-0.1610
-0.0830
0.0000
0.0684
0.1074
0.1074
0.1172
0.1416
0.1562
0.1562
0.1562
0.1514
0.1562
0.1562
0.1514
0.1465
0.1465
0.1465
0.1562
0.1611
0.1465
0.1562
0.1709
0.1758
0.1758
0.1807
0.1807
0.1758
0.1953
0.2002
0.2051
0.1953
0.2148
0.2246
0.2246
0.2344
0.2393
0.2441
0.2588
0.2637
0.2686
0.2490
0.2539
0.2588
0.2539
0.2393
0.2246
0.2197
0.2197
0.2197
0.2002
0.1855
0.1758
0.1709
0.1514
0.1318
0.1123
0.1074
0.0928
0.0732
0.0488
0.0391
0.0244
0.0146
0.0195
0.0098
-0.0040
-0.0040
0.0049
0.0049
0.0049
0.0049
0.0000
0.0000
0.0098
0.0098
-0.0140
-0.0140
-0.0190
-0.0040
-0.0090
-0.0090
-0.0040
-0.0040
0.0195
0.0146
0.0098
0.0146
0.0098
0.0244
0.0195
0.0049
-0.0040
-0.0040
0.0049
0.0098
-0.0090
-0.0140
-0.0040
0.0146
0.0049
0.0049
0.0000
0.0049
0.0049
0.0049
0.0000
-0.0140
-0.0090
-0.0090
-0.0140
-0.0240
-0.0290
-0.0240
-0.0090
-0.0140
-0.0240
-0.0240
-0.0140
-0.0040
-0.0040
0.0000
-0.0090
-0.0140
0.0000
-0.0040
-0.0190
-0.0240
-0.0190
-0.0140
-0.0040
0.0000
0.0000
0.0049
0.0293
0.0586
0.0732
0.0684
0.0781
0.0830
0.0879
0.0781
0.0537
0.0293
0.0244
0.0195
-0.0090
-0.0530
-0.0680
-0.0680
-0.0630
-0.0680
-0.0430
-0.0480
-0.0430
-0.0290
-0.0390
-0.0390
-0.0430
-0.0390
-0.0290
-0.0290
-0.0340
-0.0340
-0.0240
-0.0190
-0.0090
0.0000
0.0049
-0.0290
-0.0530
-0.1950
-0.6050
-0.8050
-1.1270
-1.2540
-1.2590
-1.1080
-0.8780
-0.7170
-0.5120
-0.4050
-0.2340
-0.1220
-0.0340
0.0049
0.0488
0.0586
0.0586
0.0684
0.0879
0.0977
0.0928
0.0879
0.1123
0.1172
0.1123
0.1123
0.1074
0.1025
0.1123
0.1172
0.1123
0.1025
0.0977
0.1025
0.1074
0.0977
0.0928
0.1025
0.1172
0.1318
0.1660
0.1758
0.2051
0.2393
0.2637
0.2783
0.2881
0.3027
0.3223
0.3223
0.3271
0.3271
0.3223
0.3223
0.3271
0.3174
0.2881
0.2783
0.2588
0.2393
0.2051
0.1807
0.1416
0.1123
0.0879
0.0732
0.0391
0.0098
0.0000
0.0098
0.0049
0.0049
0.0146
0.0244
0.0293
0.0342
0.0293
0.0244
0.0342
0.0391
0.0342
0.0244
0.0146
0.0098
0.0098
0.0195
0.0098
-0.0040
0.0098
0.0049
0.0000
-0.0090
-0.0140
0.0000
0.0049
0.0049
0.0000
-0.0040
-0.0090
-0.0090
-0.0040
-0.0040
-0.0190
-0.0240
-0.0140
-0.0140
-0.0240
-0.0340
-0.0340
-0.0340
-0.0430
-0.0430
-0.0630
-0.0630
-0.0580
-0.0530
-0.0680
-0.0680
-0.0780
-0.0780
-0.0870
-0.0830
-0.0780
-0.0970
-0.0870
-0.0830
-0.0730
-0.0870
-0.0830
-0.0780
-0.0680
-0.0730
-0.0680
-0.0730
-0.0830
-0.0680
-0.0530
-0.0680
-0.0780
-0.0680
-0.0630
-0.0630
-0.0680
-0.0630
-0.0530
-0.0390
-0.0090
0.0098
0.0049
0.0000
0.0293
0.0391
0.0342
0.0195
0.0049
0.0146
-0.0240
-0.0390
-0.0830
-0.0870
-0.0970
-0.0970
-0.1020
-0.0870
-0.0780
-0.0870
-0.0730
-0.0870
-0.0920
-0.0920
-0.0780
-0.0680
-0.0630
-0.0780
-0.0780
-0.0680
-0.0630
-0.0580
-0.0390
-0.0240
-0.0780
-0.0920
-0.1220
-0.3950
-0.7760
-0.9470
-1.1710
-1.2250
-1.0540
-0.9470
-0.7320
-0.5510
-0.3320
-0.2490
-0.1310
-0.0530
0.0049
0.0195
0.0195
0.0342
0.0439
0.0439
0.0439
0.0391
0.0391
0.0439
0.0586
0.0635
0.0537
0.0586
0.0732
0.0781
0.0732
0.0830
0.0684
0.0830
0.0928
0.0928
0.0977
0.0879
0.1074
0.1172
0.1270
0.1221
0.1367
0.1367
0.1562
0.1807
0.1855
0.1758
0.1953
0.2051
0.2148
0.2197
0.2246
0.2295
0.2246
0.2441
0.2344
0.2197
0.2100
0.2100
0.1953
0.1660
0.1367
0.1221
0.0879
0.0977
0.0537
0.0391
0.0244
0.0146
0.0098
0.0098
-0.0240
-0.0140
-0.0140
-0.0190
-0.0240
-0.0190
-0.0290
-0.0290
-0.0140
-0.0140
-0.0240
-0.0190
-0.0090
-0.0040
-0.0090
-0.0090
-0.0290
0.0000
-0.0040
-0.0040
-0.0090
-0.0140
-0.0190
0.0146
0.0049
-0.0090
-0.0040
-0.0040
0.0049
0.0146
0.0049
0.0000
-0.0040
0.0049
0.0049
0.0049
-0.0090
-0.0140
-0.0040
0.0000
-0.0090
-0.0140
-0.0240
-0.0190
-0.0140
-0.0240
-0.0340
-0.0340
-0.0240
-0.0190
-0.0140
-0.0190
-0.0240
-0.0190
-0.0140
-0.0140
-0.0340
-0.0240
-0.0190
-0.0140
-0.0140
-0.0290
-0.0290
-0.0190
-0.0240
-0.0040
-0.0040
0.0000
0.0195
0.0391
0.0488
0.0488
0.0488
0.0635
0.0732
0.0635
0.0439
0.0342
0.0342
0.0342
0.0098
-0.0240
-0.0390
-0.0390
-0.0390
-0.0340
-0.0240
-0.0430
-0.0430
-0.0390
-0.0390
-0.0480
-0.0530
-0.0580
-0.0390
-0.0390
-0.0430
-0.0530
-0.0430
-0.0390
-0.0140
0.0000
-0.0290
-0.0530
-0.0430
-0.2190
-0.5710
-0.7760
-1.0590
-1.1420
-1.1470
-0.9810
-0.7860
-0.6150
-0.3950
-0.2970
-0.1610
-0.0830
-0.0140
0.0098
0.0488
0.0488
0.0488
0.0537
0.0635
0.0732
0.0781
0.0732
0.0879
0.1025
0.1025
0.1025
0.1074
0.1074
0.1074
0.1074
0.1123
0.1025
0.1074
0.1172
0.1318
0.1318
0.1270
0.1367
0.1465
0.1660
0.1758
0.1758
0.1855
0.2051
0.2246
0.2246
0.2246
0.2393
0.2490
0.2539
0.2588
0.2637
0.2588
0.2588
0.2637
0.2490
0.2344
0.2246
0.2148
0.2051
0.1855
0.1758
0.1416
0.1123
0.1025
0.0928
0.0781
0.0635
0.0488
0.0391
0.0391
0.0293
0.0195
0.0293
0.0391
0.0293
0.0244
0.0195
0.0244
0.0293
0.0439
0.0342
0.0293
0.0244
0.0488
0.0488
0.0391
0.0342
0.0439
0.0488
0.0488
0.0537
0.0342
0.0342
0.0488
0.0439
0.0391
0.0293
0.0244
0.0342
0.0391
0.0342
0.0244
0.0244
0.0342
0.0342
0.0391
0.0342
0.0293
0.0244
0.0342
0.0391
0.0146
0.0098
0.0049
0.0293
0.0293
0.0146
0.0098
0.0146
0.0146
0.0146
0.0244
0.0244
0.0195
0.0244
0.0244
0.0098
0.0244
0.0195
0.0146
0.0195
0.0098
0.0049
0.0049
0.0098
0.0195
0.0098
0.0000
0.0146
0.0293
0.0293
0.0537
0.0586
0.0879
0.0928
0.1025
0.1074
0.1221
0.1318
0.1221
0.1172
0.1074
0.1025
0.0781
0.0586
0.0635
0.0342
0.0244
0.0342
0.0586
0.0586
0.0439
0.0342
0.0488
0.0537
0.0537
0.0732
0.0635
0.0635
0.0732
0.0879
0.0879
0.0830
0.0977
0.1318
0.1416
0.1172
0.0684
-0.0920
-0.4050
-0.5850
-0.9320
-1.0880
-1.0400
-0.9570
-0.7660
-0.5900
-0.4190
-0.3170
-0.1220
-0.0290
0.0439
0.0635
0.0928
0.1172
0.1270
0.1270
0.1318
0.1318
0.1416
0.1465
0.1514
0.1465
0.1416
0.1562
0.1660
0.1758
0.1611
0.1660
0.1758
0.1758
0.1807
0.1758
0.1807
0.1855
0.2002
0.2051
0.2100
0.2002
0.2246
0.2441
0.2441
0.2490
0.2490
0.2539
0.2734
0.2881
0.2832
0.2979
0.2881
0.3076
0.2979
0.2881
0.2783
0.2686
0.2588
0.2539
0.2393
0.2002
0.1807
0.1709
0.1416
0.1123
0.0830
0.0732
0.0439
0.0391
0.0146
0.0049
-0.0140
-0.0290
-0.0290
-0.0290
-0.0580
-0.0530
-0.0580
-0.0530
-0.0480
-0.0530
-0.0430
-0.0390
-0.0040
0.0342
0.0928
0.1416
0.2832
0.4541
0.6201
0.7080
0.9180
1.0986
1.2207
1.1963
1.0986
0.9082
0.6836
0.5859
0.3271
0.1270
-0.0630
-0.1170
-0.1700
-0.1220
-0.0920
-0.1070
-0.0780
-0.0290
-0.0140
-0.0140
-0.0340
-0.0830
-0.1170
-0.1220
-0.1270
-0.1460
-0.1560
-0.1610
-0.1610
-0.1900
-0.2240
-0.2340
-0.2240
-0.2240
-0.2240
-0.2340
-0.2440
-0.2530
-0.2580
-0.2440
-0.2490
-0.2140
-0.1850
-0.2050
-0.2340
-0.2630
-0.2830
-0.2880
-0.3020
-0.3170
-0.3410
-0.3410
-0.3360
-0.3270
-0.3220
-0.3320
-0.3320
-0.3020
-0.2880
-0.2830
-0.2680
-0.2580
-0.2340
-0.2140
-0.1950
-0.1850
-0.1610
-0.1460
-0.1170
-0.0870
-0.0730
-0.0680
-0.0430
-0.0190
-0.0190
-0.0240
-0.0290
-0.0140
-0.0040
0.0000
-0.0040
-0.0140
-0.0040
0.0000
0.0049
0.0000
-0.0040
0.0049
0.0049
0.0049
-0.0040
-0.0140
-0.0190
-0.0140
-0.0090
-0.0190
-0.0290
-0.0140
0.0000
0.0049
0.0146
0.0049
0.0195
0.0195
0.0195
0.0049
-0.0140
-0.0140
-0.0040
0.0049
-0.0090
-0.0090
0.0000
0.0098
0.0195
0.0244
0.0293
0.0342
0.0537
0.0684
0.0635
0.0537
0.0537
0.0586
0.0684
0.0488
0.0391
0.0342
0.0342
0.0342
0.0293
0.0244
0.0098
0.0049
0.0146
0.0000
-0.0090
-0.0090
-0.0190
-0.0140
-0.0090
-0.0040
-0.0140
-0.0140
0.0000
-0.0140
-0.0140
-0.0140
-0.0190
-0.0040
-0.0090
-0.0090
-0.0140
-0.0090
-0.0090
-0.0090
-0.0140
-0.0290
-0.0340
-0.0240
-0.0290
-0.0340
-0.0430
-0.0390
-0.0290
-0.0290
-0.0290
-0.0290
-0.0290
-0.0190
-0.0140
-0.0190
-0.0290
-0.0340
-0.0240
-0.0190
-0.0240
-0.0340
-0.0340
-0.0290
-0.0240
-0.0340
-0.0340
-0.0390
-0.0390
-0.0390
-0.0480
-0.0580
-0.0680
-0.0630
-0.0730
-0.0730
-0.0830
-0.0830
-0.0780
-0.0730
-0.0730
-0.0780
-0.0730
-0.0680
-0.0530
-0.0480
-0.0430
-0.0390
-0.0290
-0.0240
-0.0290
-0.0290
-0.0390
-0.0340
-0.0190
-0.0240
-0.0340
-0.0390
-0.0240
-0.0190
-0.0190
-0.0290
-0.0340
-0.0290
-0.0240
-0.0140
-0.0140
-0.0290
-0.0340
-0.0190
-0.0340
-0.0340
-0.0390
-0.0430
-0.0340
-0.0190
-0.0430
-0.0480
-0.0340
-0.0240
0.0049
0.0195
0.0049
0.0098
0.0146
0.0293
0.0049
0.0049
0.0049
0.0000
0.0146
-0.0040
-0.0340
-0.0190
-0.0290
-0.0240
-0.0090
-0.0040
-0.0140
-0.0190
-0.0040
-0.0090
-0.0040
-0.0090
-0.0140
0.0000
-0.0040
-0.0040
-0.0040
0.0000
0.0342
0.0439
0.0586
-0.0140
-0.1660
-0.2780
-0.7080
-1.0640
-1.2150
-1.1960
-1.0840
-0.8690
-0.6730
-0.5950
-0.4240
-0.2290
-0.1170
-0.0730
-0.0040
0.0342
0.0537
0.0635
0.0732
0.0732
0.0830
0.0879
0.0928
0.0928
0.0977
0.0977
0.1074
0.1074
0.1074
0.1074
0.1025
0.1221
0.1318
0.1318
0.1416
0.1465
0.1709
0.1709
0.1709
0.1758
0.1855
0.1904
0.1953
0.2100
0.2051
0.2051
0.2246
0.2441
0.2344
0.2344
0.2588
0.2686
0.2832
0.2832
0.2832
0.2930
0.3027
0.3125
0.3076
0.2930
0.2930
0.2832
0.2637
0.2393
0.2051
0.1855
0.1660
0.1367
0.1074
0.0928
0.0684
0.0537
0.0342
0.0244
0.0049
0.0000
0.0000
0.0000
-0.0040
-0.0140
-0.0140
-0.0190
0.0000
-0.0090
-0.0190
-0.0140
-0.0140
-0.0090
-0.0090
-0.0040
-0.0090
-0.0040
0.0098
0.0098
0.0146
0.0000
0.0098
0.0146
0.0293
0.0195
0.0195
0.0195
0.0244
0.0342
0.0293
0.0244
0.0293
0.0391
0.0391
0.0293
0.0244
0.0244
0.0195
0.0244
0.0098
0.0000
0.0000
0.0049
0.0049
-0.0040
-0.0140
-0.0140
-0.0190
-0.0040
0.0000
-0.0040
-0.0090
-0.0090
-0.0040
-0.0040
-0.0090
-0.0140
0.0000
0.0000
-0.0090
-0.0140
-0.0190
-0.0090
0.0000
-0.0040
-0.0140
-0.0140
-0.0090
0.0000
0.0098
0.0146
0.0293
0.0635
0.0635
0.0684
0.0684
0.0635
0.0732
0.0732
0.0537
0.0342
0.0293
0.0195
0.0000
-0.0140
-0.0340
-0.0530
-0.0390
-0.0190
-0.0290
-0.0390
-0.0430
-0.0480
-0.0480
-0.0430
-0.0430
-0.0480
-0.0480
-0.0390
-0.0240
-0.0390
-0.0480
-0.0190
0.0000
0.0195
-0.0240
-0.0430
-0.1800
-0.4830
-0.8640
-1.0540
-1.2100
-1.1810
-0.9810
-0.8640
-0.6730
-0.4980
-0.2970
-0.1900
-0.0780
-0.0190
0.0244
0.0342
0.0537
0.0684
0.0684
0.0635
0.0635
0.0781
0.0879
0.0928
0.0977
0.0928
0.1074
0.1123
0.1172
0.1074
0.1123
0.1221
0.1318
0.1318
0.1318
0.1318
0.1318
0.1562
0.1611
0.1562
0.1562
0.1758
0.1953
0.2002
0.2002
0.2051
0.2148
0.2246
0.2393
0.2441
0.2393
0.2588
0.2734
0.2832
0.2686
0.2734
0.2783
0.2783
0.2637
0.2539
0.2148
0.1953
0.1709
0.1514
0.1172
0.0830
0.0586
0.0488
0.0342
0.0195
0.0000
-0.0040
-0.0090
-0.0140
-0.0290
-0.0390
-0.0390
-0.0290
-0.0290
-0.0340
-0.0340
-0.0390
-0.0240
-0.0190
-0.0290
-0.0340
-0.0190
-0.0140
-0.0090
-0.0040
-0.0240
-0.0240
-0.0190
-0.0140
-0.0090
-0.0190
-0.0290
-0.0140
-0.0040
-0.0140
-0.0140
-0.0040
0.0146
0.0293
0.0586
0.0879
0.1025
0.1025
0.1123
0.0977
0.0488
0.0293
0.0146
0.1074
0.1562
0.1709
-0.2290
-0.7170
-0.9710
-1.0300
-1.1030
-1.1230
-1.0790
-1.0490
-0.9370
-0.8250
-0.6540
-0.5810
-0.4290
-0.2930
-0.2140
-0.1900
-0.1170
-0.0430
-0.0140
0.0000
0.0146
0.0049
0.0195
0.0293
0.0098
-0.0290
-0.0240
-0.0290
-0.0290
-0.0190
-0.0290
-0.0090
0.0000
0.0391
0.0586
0.0684
0.0928
0.1270
0.1465
0.1416
0.1270
0.1172
0.1416
0.1514
0.1660
0.1758
0.1904
0.2002
0.2246
0.2490
0.2539
0.2734
0.2881
0.3076
0.3223
0.3174
0.3271
0.3223
0.3320
0.3174
0.2783
0.2441
0.2197
0.2148
0.1660
0.1172
0.0879
0.0928
0.0928
0.0439
0.0244
0.0195
0.0098
0.0098
-0.0040
-0.0140
-0.0240
-0.0190
-0.0340
-0.0340
-0.0580
-0.0580
-0.0680
-0.0680
-0.0630
-0.0780
-0.0830
-0.0780
-0.0680
-0.0680
-0.0780
-0.0780
-0.0870
-0.0920
-0.0730
-0.0870
-0.0870
-0.1020
-0.0970
-0.0970
-0.0920
-0.1020
-0.0970
-0.1020
-0.0830
-0.0830
-0.0870
-0.0780
-0.0680
-0.0630
-0.0730
-0.0530
-0.0630
-0.0580
-0.0480
-0.0530
-0.0580
-0.0630
-0.0680
-0.0480
-0.0580
-0.0780
-0.0480
-0.0530
-0.0630
-0.0680
-0.0630
-0.0630
-0.0630
-0.0530
-0.0630
-0.0580
-0.0580
-0.0530
-0.0480
-0.0430
-0.0480
-0.0530
-0.0480
-0.0390
-0.0240
-0.0340
-0.0290
-0.0340
0.0000
-0.0090
-0.0090
-0.0090
-0.0040
0.0000
-0.0090
-0.0040
-0.0090
-0.0240
-0.0240
-0.0190
-0.0090
-0.0390
-0.0480
-0.0240
-0.0340
-0.0430
-0.0480
-0.0390
-0.0340
-0.0530
-0.0680
-0.0730
-0.0780
-0.0630
-0.0680
-0.0680
-0.0730
-0.0830
-0.0870
-0.0730
-0.0730
-0.0730
-0.0920
-0.0830
-0.0730
-0.0920
-0.0970
-0.0920
-0.0970
-0.1070
-0.1120
-0.1220
-0.1310
-0.1360
-0.1070
-0.1170
-0.1310
-0.1310
-0.1070
-0.1070
-0.1070
-0.1170
-0.1220
-0.1170
-0.0970
-0.1070
-0.1410
-0.1310
-0.1220
-0.1410
-0.1460
-0.1310
-0.1410
-0.1220
-0.1020
-0.0830
-0.0630
-0.0730
-0.0480
-0.0390
-0.0290
-0.0480
-0.0530
-0.0580
-0.0730
-0.0970
-0.1410
-0.1660
-0.1700
-0.1950
-0.2100
-0.2190
-0.2440
-0.2630
-0.2290
-0.2490
-0.2490
-0.2530
-0.2630
-0.2580
-0.2490
-0.2530
-0.2580
-0.2630
-0.2490
-0.2340
-0.2240
-0.2490
-0.2880
-0.3800
-0.6440
-0.8250
-1.2200
-1.3670
-1.3520
-1.2690
-1.0740
-0.8690
-0.6880
-0.6050
-0.4000
-0.2880
-0.2140
-0.2000
-0.1560
-0.1220
-0.1120
-0.1120
-0.0920
-0.0920
-0.0730
-0.0730
-0.0780
-0.0870
-0.0920
-0.0920
-0.1020
-0.1270
-0.1410
-0.1410
-0.1360
-0.1220
-0.0970
-0.0870
-0.0730
-0.0430
0.0049
0.0049
0.0000
0.0342
0.0635
0.0781
0.1074
0.1221
0.1270
0.1416
0.1709
0.1758
0.1709
0.1855
0.2002
0.2002
0.2100
0.2100
0.2002
0.1904
0.1904
0.1855
0.1611
0.1611
0.1562
0.1514
0.1318
0.1123
0.0977
0.0977
0.1074
0.1123
0.1025
0.1074
0.1172
0.1270
0.1074
0.1025
0.0928
0.0928
0.0830
0.0684
0.0439
0.0293
0.0195
0.0146
0.0000
-0.0390
-0.0190
-0.0390
-0.0680
-0.0680
-0.0580
-0.0630
-0.0290
-0.0040
0.0000
0.0146
0.0439
0.0684
0.0928
0.1074
0.1025
0.1367
0.1318
0.1318
0.1270
0.1416
0.1465
0.1416
0.1172
0.1318
0.1221
0.1074
0.0977
0.1270
0.1123
0.1123
0.1025
0.0830
0.0781
0.0635
0.0391
0.0293
0.0244
0.0195
0.0244
0.0049
-0.0190
-0.0140
-0.0040
-0.0090
-0.0190
-0.0290
-0.0430
-0.0630
-0.0630
-0.0920
-0.1310
-0.1560
-0.1610
-0.1660
-0.1700
-0.1750
-0.1850
-0.1850
-0.1900
-0.2000
-0.2100
-0.1950
-0.2140
-0.2050
-0.2050
-0.2000
-0.1900
-0.2050
-0.2000
-0.2000
-0.2240
-0.2100
-0.1800
-0.1900
-0.2000
-0.2000
-0.1610
-0.1560
-0.1510
-0.1360
-0.1360
-0.1170
-0.0780
-0.0390
-0.0140
-0.0040
0.0195
0.0537
0.0732
0.0439
-0.0140
-0.2000
-0.5710
-0.7760
-1.1470
-1.2740
-1.2100
-1.0880
-0.8640
-0.6730
-0.5020
-0.4150
-0.2140
-0.1310
-0.0630
-0.0430
-0.0140
0.0049
0.0244
0.0391
0.0488
0.0391
0.0586
0.0586
0.0684
0.0684
0.0488
0.0439
0.0293
0.0098
-0.0040
-0.0190
-0.0340
-0.0390
-0.0480
-0.0430
-0.0530
-0.0390
-0.0140
-0.0040
0.0098
0.0146
0.0342
0.0488
0.0830
0.1025
0.1270
0.1318
0.1562
0.1953
0.2148
0.1904
0.2588
0.2686
0.2783
0.2832
0.2930
0.2881
0.3174
0.2979
0.2930
0.2490
0.2734
0.2393
0.2051
0.1904
0.1514
0.1318
0.1660
0.1855
0.1758
0.1807
0.1953
0.2197
0.2344
0.2344
0.2393
0.2539
0.2393
0.2539
0.2637
0.2295
0.2148
0.2100
0.2100
0.1953
0.1807
0.1709
0.1611
0.1709
0.1709
0.1611
0.1465
0.1465
0.1611
0.1562
0.1514
0.1416
0.1367
0.1465
0.1221
0.1416
0.1270
0.1172
0.1123
0.1270
0.1123
0.1074
0.0977
0.1025
0.0928
0.0879
0.0732
0.0635
0.0537
0.0781
0.0439
0.0391
0.0342
0.0342
0.0391
0.0244
0.0195
0.0195
0.0000
0.0049
0.0098
0.0049
-0.0040
-0.0040
0.0000
0.0000
-0.0090
-0.0090
-0.0040
-0.0040
0.0049
0.0098
-0.0040
-0.0040
0.0293
0.0635
0.0684
0.0732
0.0928
0.1074
0.1172
0.1123
0.0928
0.0879
0.0781
0.0684
0.0537
0.0244
0.0000
0.0049
-0.0240
-0.0340
-0.0340
-0.0390
-0.0430
-0.0290
-0.0580
-0.0680
-0.0630
-0.0680
-0.0680
-0.0680
-0.0830
-0.0920
-0.0630
-0.0580
-0.0530
-0.0530
-0.0190
-0.0240
-0.0390
-0.1410
-0.4340
-0.6340
-1.0590
-1.2450
-1.2690
-1.1810
-0.9570
-0.7370
-0.5810
-0.5020
-0.3270
-0.2050
-0.1750
-0.1610
-0.1410
-0.1410
-0.1800
-0.1850
-0.1660
-0.1700
-0.1660
-0.1560
-0.1270
-0.0970
-0.0730
-0.0630
-0.0430
-0.0140
0.0293
0.0342
0.0391
0.0342
0.0586
0.0635
0.0781
0.0781
0.0830
0.0928
0.1074
0.1270
0.1416
0.1367
0.1562
0.1855
0.2051
0.2002
0.2002
0.2148
0.2295
0.2344
0.2441
0.2490
0.2588
0.2686
0.2783
0.2832
0.2637
0.2637
0.2441
0.2295
0.2051
0.1855
0.1465
0.1025
0.0635
0.0488
0.0000
-0.0390
-0.0480
-0.0580
-0.0870
-0.1120
-0.1120
-0.0970
-0.0680
-0.0780
-0.0480
-0.0430
-0.0190
0.0049
0.0244
0.0293
0.0537
0.0586
0.0830
0.0928
0.1074
0.0977
0.1221
0.1270
0.1318
0.1172
0.1172
0.1221
0.1270
0.1074
0.0977
0.0928
0.1074
0.1123
0.1221
0.1172
0.1123
0.1172
0.1270
0.1172
0.0977
0.1074
0.0781
0.0781
0.0830
0.0586
0.0439
0.0391
0.0488
0.0391
0.0195
0.0195
0.0244
0.0293
0.0293
0.0293
0.0146
0.0195
0.0293
0.0244
0.0049
0.0000
-0.0040
-0.0090
0.0098
0.0049
-0.0190
-0.0140
-0.0040
0.0000
-0.0090
-0.0140
-0.0140
-0.0040
-0.0040
-0.0040
0.0049
0.0098
0.0293
0.0439
0.0586
0.0488
0.0537
0.0586
0.0732
0.0830
0.0537
0.0537
0.0391
0.0342
-0.0040
-0.0240
-0.0390
-0.0390
-0.0430
-0.0430
-0.0530
-0.0580
-0.0530
-0.0530
-0.0530
-0.0680
-0.0780
-0.0580
-0.0530
-0.0680
-0.0580
-0.0580
-0.0530
-0.0390
-0.0240
-0.0140
-0.0580
-0.0870
-0.2490
-0.4630
-0.8880
-1.1910
-1.2840
-1.2540
-1.0400
-0.7810
-0.6100
-0.5270
-0.3270
-0.1700
-0.0920
-0.0630
-0.0090
0.0244
0.0342
0.0342
0.0391
0.0537
0.0684
0.0732
0.0830
0.0781
0.0830
0.0879
0.0977
0.1025
0.0928
0.0928
0.0977
0.1074
0.1025
0.1074
0.1074
0.1123
0.1270
0.1318
0.1318
0.1367
0.1514
0.1611
0.1709
0.1611
0.1611
0.1709
0.1855
0.1807
0.1758
0.1807
0.1904
0.2051
0.2148
0.2197
0.2246
0.2246
0.2344
0.2393
0.2393
0.2148
0.2051
0.2002
0.1807
0.1562
0.1270
0.1172
0.1074
0.0977
0.0732
0.0537
0.0488
0.0537
0.0293
0.0244
0.0098
0.0049
0.0000
0.0049
-0.0040
-0.0140
-0.0090
0.0000
0.0244
0.0684
0.1611
0.2197
0.3955
0.5566
0.7471
0.8447
1.0352
1.1719
1.2207
1.1963
1.0742
0.8301
0.6250
0.5078
0.2979
0.1172
-0.0190
-0.0680
-0.0580
-0.0140
-0.0530
-0.0390
-0.0240
-0.0140
-0.0090
-0.0390
-0.0920
-0.1270
-0.1360
-0.1410
-0.1560
-0.1610
-0.1660
-0.1510
-0.1750
-0.2100
-0.2340
-0.2390
-0.2490
-0.2680
-0.2880
-0.2970
-0.3220
-0.3170
-0.3020
-0.3070
-0.3170
-0.2630
-0.2530
-0.2580
-0.2780
-0.2930
-0.3170
-0.3270
-0.3460
-0.3610
-0.3710
-0.3760
-0.3660
-0.3560
-0.3460
-0.3410
-0.3170
-0.2830
-0.2530
-0.2390
-0.2340
-0.2000
-0.1610
-0.1560
-0.1360
-0.1170
-0.0970
-0.0870
-0.0630
-0.0390
-0.0390
-0.0340
-0.0190
-0.0140
-0.0090
-0.0140
0.0000
0.0098
0.0195
0.0098
0.0049
0.0098
0.0098
0.0049
0.0098
-0.0040
0.0000
0.0049
0.0098
0.0098
0.0146
0.0098
0.0098
0.0195
0.0146
0.0098
0.0049
0.0146
0.0195
0.0146
0.0049
0.0000
0.0049
0.0049
0.0049
0.0000
0.0000
0.0000
-0.0040
-0.0040
-0.0240
-0.0240
-0.0290
-0.0340
-0.0290
-0.0390
-0.0480
-0.0430
-0.0390
-0.0390
-0.0530
-0.0580
-0.0390
-0.0340
-0.0340
-0.0390
-0.0340
-0.0340
-0.0340
-0.0340
-0.0430
-0.0480
-0.0430
-0.0430
-0.0480
-0.0580
-0.0630
-0.0680
-0.0730
-0.0530
-0.0630
-0.0830
-0.0730
-0.0730
-0.0680
-0.0780
-0.0830
-0.0730
-0.0780
-0.0680
-0.0580
-0.0630
-0.0680
-0.0530
-0.0340
-0.0340
-0.0290
-0.0340
-0.0140
-0.0140
-0.0190
-0.0090
-0.0040
0.0049
0.0146
0.0098
0.0098
0.0098
0.0146
0.0293
0.0391
0.0439
0.0342
0.0439
0.0635
0.0684
0.0781
0.0781
0.0781
0.0830
0.0830
0.0684
0.0781
0.0732
0.0732
0.0830
0.0684
0.0586
0.0684
0.0684
0.0732
0.0635
0.0537
0.0586
0.0537
0.0488
0.0635
0.0439
0.0488
0.0537
0.0635
0.0537
0.0537
0.0586
0.0488
0.0635
0.0537
0.0537
0.0586
0.0488
0.0391
0.0391
0.0244
0.0342
0.0293
0.0293
0.0244
0.0146
0.0293
0.0244
0.0244
0.0195
-0.0040
-0.0040
0.0049
0.0098
0.0146
-0.0040
0.0000
0.0195
0.0488
0.0586
0.0684
0.0684
0.0830
0.0977
0.0928
0.0684
0.0684
0.0684
0.0586
0.0342
0.0049
0.0000
-0.0140
0.0000
0.0049
-0.0040
-0.0090
0.0049
0.0098
0.0195
0.0098
-0.0040
0.0098
0.0146
0.0195
0.0146
0.0049
-0.0040
0.0391
0.0537
0.0635
0.0391
0.0146
-0.1020
-0.4000
-0.5810
-0.9570
-1.0980
-1.0490
-0.9570
-0.7660
-0.5950
-0.4240
-0.3220
-0.1270
-0.0530
0.0098
0.0293
0.0732
0.0928
0.0977
0.0977
0.0977
0.1123
0.0977
0.0977
0.0977
0.0928
0.0928
0.1123
0.0879
0.0830
0.0732
0.0830
0.0928
0.0928
0.1074
0.1172
0.1367
0.1514
0.1660
0.1611
0.1611
0.1904
0.1904
0.1855
0.2051
0.1904
0.2197
0.2197
0.2246
0.2295
0.2246
0.2344
0.2344
0.2490
0.2295
0.2344
0.2441
0.2588
0.2539
0.2588
0.2539
0.2539
0.2686
0.2588
0.2393
0.2246
0.2197
0.2148
0.1904
0.1904
0.1611
0.1465
0.1318
0.1318
0.1514
0.1025
0.0977
0.1025
0.0928
0.0928
0.0879
0.0879
0.0830
0.0977
0.1025
0.1074
0.1123
0.1172
0.1270
0.1172
0.1074
0.0977
0.1172
0.1221
0.1221
0.1123
0.1074
0.1123
0.1172
0.1221
0.1123
0.1074
0.1221
0.1221
0.1172
0.1172
0.1270
0.1270
0.1123
0.1172
0.0977
0.0928
0.0879
0.1025
0.0879
0.0830
0.0830
0.0732
0.0879
0.0781
0.0586
0.0488
0.0635
0.0586
0.0586
0.0439
0.0488
0.0488
0.0537
0.0635
0.0684
0.0537
0.0586
0.0830
0.0684
0.0684
0.0586
0.0537
0.0781
0.0830
0.0977
0.1074
0.1221
0.1270
0.1318
0.1367
0.1221
0.1221
0.1172
0.1025
0.0928
0.0732
0.0488
0.0342
0.0146
0.0000
0.0098
0.0195
0.0293
0.0244
0.0098
0.0049
0.0000
-0.0040
0.0244
0.0244
0.0000
-0.0040
-0.0090
0.0146
0.0342
-0.0040
-0.0040
0.0342
-0.0290
-0.0480
-0.1360
-0.4240
-0.8300
-1.0250
-1.1810
-1.1710
-0.9370
-0.8150
-0.6100
-0.4240
-0.2190
-0.1170
-0.0390
0.0391
0.0977
0.0977
0.1074
0.1221
0.1318
0.1318
0.1416
0.1367
0.1367
0.1465
0.1562
0.1611
0.1416
0.1562
0.1660
0.1611
0.1758
0.1758
0.1709
0.2002
0.2100
0.2100
0.2051
0.2148
0.2344
0.2393
0.2441
0.2393
0.2588
0.2588
0.2783
0.2881
0.2832
0.2881
0.3027
0.3174
0.3271
0.3125
0.3320
0.3418
0.3467
0.3369
0.3271
0.3369
0.3076
0.2930
0.3076
0.2441
0.2197
0.2100
0.1904
0.1562
0.1270
0.1221
0.1074
0.0928
0.0879
0.0732
0.0586
0.0586
0.0635
0.0537
0.0439
0.0488
0.0488
0.0537
0.0635
0.0537
0.0488
0.0439
0.0537
0.0732
0.0439
0.0439
0.0488
0.0586
0.0537
0.0537
0.0537
0.0635
0.0635
0.0684
0.0684
0.0586
0.0635
0.0635
0.0732
0.0635
0.0586
0.0537
0.0537
0.0537
0.0439
0.0391
0.0391
0.0391
0.0439
0.0391
0.0293
0.0244
0.0342
0.0293
0.0391
0.0195
0.0195
0.0244
0.0244
0.0098
0.0049
0.0000
0.0049
0.0098
0.0098
0.0049
-0.0040
-0.0040
0.0244
0.0146
0.0049
0.0049
0.0146
0.0146
0.0098
0.0049
0.0098
0.0098
0.0342
0.0488
0.0586
0.0635
0.0830
0.0977
0.0928
0.1074
0.0781
0.0732
0.0684
0.0635
0.0342
0.0000
-0.0140
-0.0140
-0.0290
-0.0340
-0.0240
-0.0240
-0.0190
-0.0290
-0.0090
-0.0430
-0.0480
-0.0340
-0.0390
-0.0480
-0.0530
-0.0530
-0.0480
-0.0430
-0.0480
-0.0340
-0.0340
-0.0530
-0.0830
-0.2340
-0.5810
-0.7810
-1.1080
-1.2150
-1.1230
-1.0250
-0.8250
-0.6490
-0.4540
-0.3360
-0.1750
-0.0970
-0.0140
0.0098
0.0342
0.0488
0.0586
0.0732
0.0879
0.0879
0.0879
0.0928
0.1025
0.1123
0.1123
0.1123
0.1123
0.1270
0.1514
0.1562
0.1562
0.1465
0.1611
0.1758
0.1758
0.1660
0.1709
0.1758
0.1855
0.1807
0.1953
0.1855
0.1904
0.2148
0.2246
0.2246
0.2246
0.2344
0.2539
0.2588
0.2539
0.2539
0.2588
0.2588
0.2637
0.2441
0.2344
0.2295
0.2295
0.2148
0.1855
0.1758
0.1562
0.1416
0.1221
0.1123
0.0830
0.0586
0.0586
0.0488
0.0244
0.0098
0.0049
0.0098
0.0049
-0.0040
-0.0040
-0.0090
-0.0140
-0.0040
-0.0140
-0.0190
-0.0140
-0.0140
0.0049
0.0000
-0.0090
-0.0140
-0.0090
0.0000
0.0000
-0.0140
-0.0090
0.0000
0.0146
0.0049
0.0000
0.0146
0.0195
0.0244
0.0244
0.0195
0.0098
0.0049
0.0195
0.0000
0.0049
-0.0090
0.0000
0.0049
0.0049
-0.0090
-0.0140
-0.0090
-0.0040
0.0049
-0.0190
-0.0190
-0.0140
-0.0140
-0.0290
-0.0290
-0.0430
-0.0430
-0.0340
-0.0390
-0.0580
-0.0680
-0.0680
-0.0630
-0.0530
-0.0630
-0.0780
-0.0680
-0.0580
-0.0630
-0.0580
-0.0780
-0.0680
-0.0430
-0.0290
-0.0290
-0.0090
0.0146
0.0391
0.0488
0.0586
0.0488
0.0488
0.0488
0.0439
0.0244
0.0049
0.0000
-0.0340
-0.0430
-0.0680
-0.0730
-0.0780
-0.0680
-0.0580
-0.0730
-0.0830
-0.0870
-0.0730
-0.0730
-0.0730
-0.0830
-0.0870
-0.0830
-0.0680
-0.0730
-0.0780
-0.0680
-0.0480
-0.0390
-0.0780
-0.0920
-0.1070
-0.3610
-0.7470
-0.9320
-1.1670
-1.2150
-1.0150
-0.9180
-0.7170
-0.5510
-0.3070
-0.2340
-0.1170
-0.0480
-0.0090
0.0049
0.0244
0.0488
0.0439
0.0342
0.0244
0.0439
0.0635
0.0732
0.0732
0.0684
0.0684
0.0732
0.0879
0.0879
0.0781
0.0781
0.0977
0.1025
0.1025
0.0977
0.0977
0.1074
0.1221
0.1221
0.1025
0.1172
0.1416
0.1416
0.1416
0.1416
0.1514
0.1562
0.1807
0.1807
0.1904
0.1904
0.2002
0.2148
0.2246
0.2148
0.2002
0.1953
0.1953
0.1807
0.1514
0.1221
0.0977
0.0928
0.0635
0.0293
0.0098
0.0049
-0.0090
-0.0190
-0.0290
-0.0340
-0.0340
-0.0430
-0.0240
-0.0340
-0.0390
-0.0340
-0.0340
-0.0430
-0.0390
-0.0390
-0.0340
-0.0240
-0.0040
0.0293
0.0879
0.1270
0.2930
0.4492
0.5811
0.6787
0.8691
1.0547
1.1719
1.1865
1.1377
0.9521
0.7715
0.6494
0.4053
0.1611
-0.0430
-0.1310
-0.1750
-0.1460
-0.2000
-0.1900
-0.1460
-0.1020
-0.0870
-0.0970
-0.0970
-0.1460
-0.1610
-0.1610
-0.1560
-0.1700
-0.1750
-0.1750
-0.1850
-0.2290
-0.2580
-0.2580
-0.2630
-0.2830
-0.2970
-0.3020
-0.3120
-0.3460
-0.3560
-0.3660
-0.3710
-0.3460
-0.3320
-0.3460
-0.3610
-0.3560
-0.3410
-0.3410
-0.3360
-0.3510
-0.3610
-0.3510
-0.3410
-0.3360
-0.3510
-0.3410
-0.3170
-0.2970
-0.2830
-0.2780
-0.2680
-0.2440
-0.2140
-0.2000
-0.1800
-0.1610
-0.1310
-0.1170
-0.1020
-0.0830
-0.0680
-0.0580
-0.0340
0.0000
0.0146
0.0098
0.0439
0.0684
0.0830
0.0781
0.0781
0.0977
0.1123
0.1221
0.1270
0.1221
0.1221
0.1318
0.1416
0.1172
0.1025
0.0928
0.1074
0.0928
0.0977
0.0879
0.0781
0.0732
0.0928
0.0977
0.0830
0.0830
0.1074
0.0977
0.0879
0.0732
0.0684
0.0732
0.0732
0.0586
0.0488
0.0488
0.0488
0.0488
0.0439
0.0488
0.0293
0.0293
0.0342
0.0244
0.0195
0.0244
0.0146
0.0049
0.0049
-0.0140
-0.0140
-0.0190
-0.0240
0.0000
-0.0340
-0.0430
-0.0390
-0.0190
-0.0390
-0.0530
-0.0630
-0.0630
-0.0680
-0.0730
-0.0920
-0.1020
-0.1170
-0.1170
-0.1120
-0.1310
-0.1360
-0.1310
-0.1360
-0.1360
-0.1560
-0.1700
-0.2000
-0.2290
-0.2580
-0.2780
-0.3120
-0.3460
-0.3410
-0.3410
-0.3410
-0.3360
-0.3170
-0.3020
-0.2830
-0.2780
-0.2930
-0.3070
-0.3410
-0.3760
-0.4290
-0.4540
-0.4780
-0.4930
-0.4980
-0.5020
-0.5020
-0.4730
-0.4340
-0.4150
-0.3850
-0.3760
-0.3360
-0.3270
-0.3020
-0.2880
-0.2780
-0.2680
-0.2630
-0.2190
-0.1900
-0.1750
-0.1270
-0.0780
-0.0340
-0.0140
0.0000
0.0342
0.0439
0.0537
0.0732
0.0781
0.0879
0.0977
0.1221
0.1562
0.1709
0.1904
0.2197
0.2539
0.2734
0.2783
0.2686
0.2832
0.2930
0.2979
0.3027
0.2686
0.2832
0.2881
0.3076
0.3125
0.3662
0.3711
0.4004
0.4346
0.4492
0.4443
0.4541
0.4541
0.4443
0.4297
0.4004
0.3662
0.3418
0.3369
0.3223
0.2637
0.2393
0.2344
0.2295
0.2197
0.1953
0.1758
0.1660
0.1465
0.1562
0.1318
0.0928
0.0830
0.0781
0.0732
0.0488
0.0586
0.0635
0.0732
0.0977
0.1123
0.0537
0.0439
-0.0970
-0.4590
-0.8440
-0.9470
-1.0540
-1.0590
-0.8150
-0.7080
-0.5710
-0.4000
-0.1950
-0.1460
-0.0580
0.0049
0.0488
0.0635
0.0684
0.0684
0.0586
0.0586
0.0732
0.0830
0.0732
0.0684
0.0537
0.0684
0.0732
0.0635
0.0586
0.0732
0.0977
0.1221
0.1172
0.1270
0.1270
0.1318
0.1416
0.1318
0.1221
0.1221
0.1465
0.1318
0.1416
0.1318
0.1270
0.1367
0.1416
0.1465
0.1172
0.1172
0.1221
0.1172
0.1025
0.0879
0.0732
0.0635
0.0635
0.0488
0.0195
0.0146
0.0146
0.0293
0.0342
0.0293
0.0195
0.0146
0.0098
0.0000
-0.0240
-0.0480
-0.0580
-0.0630
-0.0680
-0.0870
-0.0780
-0.0780
-0.0680
-0.0430
-0.0340
-0.0290
-0.0140
0.0146
0.0146
0.0098
0.0049
0.0098
0.0146
-0.0090
-0.0040
-0.0090
0.0000
0.0049
0.0146
0.0195
0.0146
0.0293
0.0684
0.0879
0.1270
0.1367
0.1709
0.1953
0.2051
0.2197
0.1904
0.2002
0.2197
0.2051
0.1807
0.1709
0.1807
0.1611
0.1855
0.1660
0.1416
0.1367
0.1318
0.1562
0.1221
0.1172
0.1074
0.0928
0.0928
0.0977
0.1025
0.0684
0.0684
0.0684
0.0684
0.0488
0.0439
0.0439
0.0488
0.0537
0.0244
0.0195
0.0146
0.0342
0.0439
0.0488
0.0537
0.0635
0.0830
0.0928
0.0635
0.0635
0.0684
0.0488
0.0342
0.0244
-0.0190
-0.0480
-0.0630
-0.0830
-0.1070
-0.1170
-0.1270
-0.1310
-0.1360
-0.1360
-0.1610
-0.1410
-0.1270
-0.1270
-0.1270
-0.1220
-0.1070
-0.1020
-0.1020
-0.0970
-0.1020
-0.0920
-0.0780
-0.1120
-0.1660
-0.1950
-0.4880
-0.9080
-1.2540
-1.2980
-1.3370
-1.1520
-0.9420
-0.8440
-0.6930
-0.5020
-0.3410
-0.3120
-0.2530
-0.2190
-0.2100
-0.2100
-0.1850
-0.1510
-0.1270
-0.1170
-0.0870
-0.0480
-0.0140
0.0000
0.0195
0.0293
0.0732
0.0781
0.0928
0.0977
0.1074
0.1123
0.1416
0.1611
0.1611
0.1709
0.1807
0.1953
0.2051
0.2051
0.2051
0.2051
0.2148
0.2197
0.2246
0.2148
0.2393
0.2539
0.2783
0.2881
0.3125
0.3223
0.3516
0.3711
0.3809
0.3857
0.3809
0.3809
0.3613
0.3418
0.3076
0.2832
0.2588
0.2441
0.2295
0.1807
0.1758
0.1709
0.1562
0.1318
0.1221
0.1221
0.1221
0.1172
0.0928
0.0928
0.0928
0.0977
0.0732
0.0781
0.0635
0.0781
0.0830
0.0781
0.0684
0.0586
0.0537
0.0537
0.0684
0.0586
0.0439
0.0391
0.0342
0.0391
0.0439
0.0146
0.0146
0.0195
0.0049
0.0098
0.0195
-0.0140
-0.0190
-0.0090
-0.0240
-0.0430
-0.0530
-0.0530
-0.0630
-0.0730
-0.0920
-0.1070
-0.1120
-0.1020
-0.1120
-0.1270
-0.1410
-0.1120
-0.0970
-0.0870
-0.0730
-0.0780
-0.0680
-0.0630
-0.0580
-0.0630
-0.0680
-0.0630
-0.0630
-0.0630
-0.0730
-0.0780
-0.0870
-0.0870
-0.0830
-0.0920
-0.0920
-0.0730
-0.0530
-0.0480
-0.0390
-0.0340
-0.0190
-0.0090
0.0244
0.0244
0.0635
0.0635
0.0732
0.0830
0.0439
0.0195
-0.0040
-0.0240
-0.0630
-0.0680
-0.0730
-0.0870
-0.0920
-0.0870
-0.0830
-0.0780
-0.0430
-0.0140
0.0098
0.0049
0.0146
0.0244
0.0391
0.0439
0.0635
0.0635
0.0488
0.0146
-0.0340
-0.0730
-0.4190
-0.7950
-1.0980
-1.1180
-1.1320
-0.9080
-0.7030
-0.6000
-0.4240
-0.2240
-0.0680
-0.0390
0.0293
0.0732
0.0879
0.0977
0.0830
0.0830
0.0928
0.0879
0.0781
0.0928
0.1025
0.0977
0.1172
0.1025
0.1172
0.1221
0.1318
0.1172
0.1221
0.1172
0.1074
0.1270
0.1367
0.1221
0.1123
0.1416
0.1562
0.1562
0.1660
0.1904
0.1709
0.1904
0.2148
0.2246
0.2002
0.2246
0.2148
0.2295
0.2246
0.2246
0.2344
0.2441
0.2539
0.2441
0.2197
0.2246
0.2002
0.2002
0.1904
0.1562
0.1172
0.1074
0.1074
0.0732
0.0391
0.0293
0.0244
0.0342
0.0049
0.0000
-0.0090
-0.0190
0.0000
-0.0040
-0.0090
-0.0140
-0.0040
-0.0040
-0.0090
-0.0090
-0.0140
-0.0140
-0.0190
0.0000
-0.0140
-0.0140
-0.0140
-0.0090
0.0098
-0.0040
-0.0190
-0.0040
0.0098
0.0000
0.0098
0.0049
0.0049
0.0049
0.0000
0.0293
-0.0090
-0.0090
0.0195
-0.0040
0.0000
-0.0040
-0.0090
-0.0140
0.0000
0.0049
-0.0140
-0.0140
0.0049
-0.0090
-0.0240
-0.0290
-0.0240
-0.0190
-0.0140
-0.0140
-0.0340
-0.0290
-0.0140
-0.0140
-0.0290
-0.0290
-0.0290
-0.0190
-0.0190
-0.0240
-0.0290
-0.0290
-0.0190
-0.0140
-0.0240
-0.0040
0.0098
0.0244
0.0537
0.0732
0.0586
0.0586
0.0781
0.1074
0.0928
0.0732
0.0537
0.0488
0.0586
0.0146
-0.0190
-0.0290
-0.0480
-0.0390
-0.0290
-0.0240
-0.0530
-0.0630
-0.0430
-0.0480
-0.0730
-0.0730
-0.0680
-0.0630
-0.0630
-0.0630
-0.0780
-0.0780
-0.0480
-0.0480
-0.0390
-0.0340
-0.0780
-0.0580
-0.1560
-0.4290
-0.8540
-0.9810
-1.1230
-1.1370
-0.9030
-0.8150
-0.6050
-0.4050
-0.1900
-0.1460
-0.0680
-0.0090
0.0244
0.0342
0.0488
0.0293
0.0488
0.0488
0.0488
0.0537
0.0586
0.0439
0.0781
0.0732
0.0684
0.0732
0.0879
0.0977
0.1025
0.0928
0.1025
0.0977
0.1172
0.1221
0.1318
0.1367
0.1318
0.1318
0.1758
0.1660
0.1660
0.1709
0.1807
0.2051
0.2148
0.2148
0.2246
0.2344
0.2490
0.2539
0.2539
0.2441
0.2441
0.2686
0.2588
0.2441
0.2393
0.2344
0.2197
0.2002
0.1758
0.1562
0.1416
0.1367
0.1172
0.1074
0.0928
0.0928
0.1025
0.0977
0.0928
0.0977
0.0830
0.0879
0.0977
0.0732
0.0586
0.0684
0.0732
0.0732
0.0684
0.0684
0.0635
0.0977
0.1562
0.1953
0.2930
0.4492
0.5957
0.6934
0.8838
1.0547
1.1816
1.2256
1.1768
1.0596
0.8496
0.7520
0.5322
0.3125
0.1074
0.0000
-0.0970
-0.0480
-0.0090
-0.0140
-0.0140
0.0293
0.0488
0.0684
0.0488
-0.0090
-0.0580
-0.0580
-0.0680
-0.0730
-0.0920
-0.1070
-0.1220
-0.1220
-0.1750
-0.1900
-0.2000
-0.2050
-0.1950
-0.1900
-0.2050
-0.2340
-0.2490
-0.2340
-0.2190
-0.2050
-0.1900
-0.2050
-0.2000
-0.2240
-0.2390
-0.2530
-0.2730
-0.2880
-0.3070
-0.3170
-0.3220
-0.3360
-0.3270
-0.3270
-0.3220
-0.3270
-0.2970
-0.2930
-0.2580
-0.2490
-0.2340
-0.2240
-0.1950
-0.1610
-0.1410
-0.1310
-0.1070
-0.0730
-0.0480
-0.0480
-0.0340
-0.0140
0.0049
0.0244
0.0195
0.0146
0.0244
0.0293
0.0342
0.0293
0.0439
0.0391
0.0391
0.0439
0.0439
0.0342
0.0293
0.0439
0.0391
0.0391
0.0391
0.0439
0.0293
0.0391
0.0537
0.0391
0.0342
0.0342
0.0391
0.0439
0.0342
0.0293
0.0293
0.0342
0.0293
0.0244
0.0195
0.0293
0.0195
0.0244
0.0293
0.0000
0.0049
0.0098
0.0049
0.0146
-0.0040
-0.0040
-0.0040
0.0049
0.0098
-0.0040
-0.0040
0.0244
0.0098
0.0049
0.0000
0.0098
0.0098
0.0146
0.0244
0.0098
0.0195
0.0244
0.0244
0.0146
0.0098
0.0195
0.0146
0.0049
0.0342
0.0195
0.0049
0.0098
0.0098
0.0049
-0.0090
-0.0190
0.0146
0.0098
0.0049
-0.0040
-0.0040
-0.0040
0.0146
0.0146
0.0049
0.0146
0.0293
0.0195
0.0293
0.0244
0.0146
0.0146
0.0391
0.0244
0.0098
0.0049
0.0098
0.0146
0.0146
0.0049
0.0000
0.0049
0.0098
0.0049
-0.0040
-0.0140
-0.0040
-0.0040
0.0098
0.0000
-0.0090
-0.0040
0.0049
0.0049
0.0000
0.0049
-0.0040
-0.0040
0.0049
0.0049
-0.0140
0.0098
0.0049
-0.0040
0.0049
0.0000
-0.0040
0.0000
0.0049
0.0049
-0.0140
-0.0140
0.0000
0.0049
0.0146
-0.0040
0.0049
0.0098
0.0146
0.0195
0.0049
0.0098
0.0146
0.0293
0.0391
0.0293
0.0586
0.0781
0.0781
0.0830
0.0879
0.0879
0.0732
0.0684
0.0537
0.0293
0.0195
0.0146
0.0000
-0.0290
-0.0480
-0.0480
-0.0390
-0.0190
-0.0430
-0.0390
-0.0390
-0.0430
-0.0290
-0.0290
-0.0530
-0.0530
-0.0390
-0.0390
-0.0340
-0.0390
-0.0430
-0.0090
0.0195
-0.0290
-0.0780
-0.1610
-0.4290
-0.7950
-1.0640
-1.1520
-1.1470
-1.0010
-0.7760
-0.6930
-0.5270
-0.3410
-0.1800
-0.1170
-0.0480
0.0000
0.0195
0.0293
0.0488
0.0586
0.0684
0.0488
0.0586
0.0732
0.0781
0.0732
0.0586
0.0537
0.0732
0.0684
0.0684
0.0635
0.0537
0.0537
0.0586
0.0537
0.0439
0.0391
0.0488
0.0732
0.0635
0.0635
0.0684
0.0830
0.1074
0.1172
0.1025
0.1270
0.1416
0.1465
0.1562
0.1562
0.1514
0.1709
0.1758
0.1758
0.1611
0.1611
0.1660
0.1562
0.1416
0.1318
0.1172
0.0977
0.0781
0.0635
0.0342
0.0098
-0.0040
-0.0040
-0.0190
-0.0340
-0.0480
-0.0530
-0.0530
-0.0580
-0.0630
-0.0630
-0.0630
-0.0580
-0.0530
-0.0580
-0.0680
-0.0630
-0.0580
-0.0580
-0.0580
-0.0870
-0.0630
-0.0580
-0.0530
-0.0530
-0.0580
-0.0580
-0.0390
-0.0240
-0.0340
-0.0390
-0.0430
-0.0090
-0.0040
-0.0140
-0.0190
-0.0140
0.0000
-0.0040
-0.0090
-0.0040
-0.0140
-0.0190
-0.0040
0.0000
-0.0240
-0.0240
-0.0140
-0.0140
-0.0240
-0.0290
-0.0240
-0.0390
-0.0290
-0.0290
-0.0240
-0.0430
-0.0340
-0.0240
-0.0190
-0.0390
-0.0390
-0.0340
-0.0340
-0.0290
-0.0340
-0.0340
-0.0140
0.0098
0.0342
0.0244
0.0195
0.0391
0.0488
0.0488
0.0391
0.0244
0.0098
0.0146
0.0195
-0.0290
-0.0530
-0.0480
-0.0630
-0.0730
-0.0780
-0.0730
-0.0630
-0.0680
-0.0530
-0.0580
-0.0730
-0.0630
-0.0580
-0.0530
-0.0530
-0.0580
-0.0530
-0.0480
-0.0480
-0.0390
-0.0240
-0.0390
-0.0630
-0.0580
-0.0480
-0.2580
-0.6100
-0.9810
-1.1270
-1.0980
-0.9810
-0.8050
-0.6150
-0.5170
-0.2730
-0.1510
-0.0680
-0.0340
0.0244
0.0391
0.0488
0.0586
0.0586
0.0732
0.0781
0.0732
0.0684
0.0879
0.0977
0.1025
0.0977
0.0879
0.0928
0.0928
0.1074
0.1123
0.0879
0.0977
0.1172
0.1172
0.1123
0.1172
0.1318
0.1514
0.1611
0.1611
0.1904
0.1807
0.2051
0.2100
0.2197
0.2246
0.2344
0.2393
0.2490
0.2539
0.2344
0.2393
0.2490
0.2393
0.2246
0.2148
0.2002
0.1904
0.1904
0.1758
0.1416
0.1270
0.1318
0.1123
0.0977
0.0928
0.0830
0.0830
0.0830
0.0781
0.0732
0.0928
0.0830
0.1123
0.0830
0.0684
0.0537
0.0684
0.0684
0.0537
0.0488
0.0488
0.0391
0.0391
0.0439
0.0293
0.0195
0.0342
0.0293
0.0342
0.0293
0.0293
0.0342
0.0391
0.0439
0.0391
0.0342
0.0439
0.0488
0.0537
0.0586
0.0342
0.0488
0.0439
0.0439
0.0391
0.0342
0.0244
0.0195
0.0342
0.0195
0.0146
0.0049
0.0098
0.0049
-0.0040
-0.0140
-0.0140
-0.0040
0.0049
-0.0040
-0.0090
-0.0040
0.0000
0.0049
0.0049
0.0000
0.0098
-0.0040
0.0146
0.0146
0.0146
0.0244
0.0537
0.0830
0.0977
0.0732
0.0830
0.0928
0.0928
0.0781
0.0635
0.0488
0.0439
0.0342
0.0000
-0.0140
-0.0240
-0.0340
-0.0290
-0.0190
-0.0140
-0.0290
-0.0390
-0.0190
-0.0240
-0.0390
-0.0530
-0.0340
-0.0240
-0.0390
-0.0340
-0.0480
-0.0340
-0.0140
0.0000
0.0244
0.0342
-0.0290
-0.1020
-0.4780
-0.6780
-1.0350
-1.2100
-1.2350
-1.1130
-0.8780
-0.6880
-0.5170
-0.4190
-0.2340
-0.1220
-0.0530
-0.0090
0.0488
0.0586
0.0586
0.0586
0.0684
0.0732
0.0781
0.0781
0.0732
0.0732
0.1074
0.1025
0.0977
0.0977
0.1025
0.1025
0.1172
0.1318
0.1270
0.1318
0.1416
0.1611
0.1709
0.1611
0.1758
0.1855
0.1953
0.2002
0.2051
0.2148
0.2344
0.2393
0.2539
0.2441
0.2686
0.2783
0.2881
0.2979
0.2979
0.2930
0.2930
0.2979
0.2783
0.2637
0.2441
0.2295
0.2051
0.1953
0.1758
0.1367
0.1270
0.1221
0.1074
0.0781
0.0537
0.0488
0.0488
0.0391
0.0244
0.0244
0.0293
0.0293
0.0342
0.0293
0.0439
0.0293
0.0439
0.0488
0.0488
0.0391
0.0488
0.0439
0.0537
0.0439
0.0391
0.0391
0.0391
0.0439
0.0293
0.0244
0.0244
0.0391
0.0342
0.0342
0.0391
0.0146
0.0391
0.0586
0.0342
0.0244
0.0342
0.0342
0.0391
0.0391
0.0391
0.0391
0.0391
0.0586
0.0586
0.0488
0.0391
0.0684
0.0488
0.0488
0.0244
0.0342
0.0146
0.0098
0.0049
-0.0190
-0.0290
-0.0040
0.0146
0.0098
0.0049
0.0098
0.0244
0.0342
0.0391
0.0439
0.0391
0.0293
0.0537
0.0586
0.0684
0.0830
0.1074
0.1172
0.1123
0.1074
0.0879
0.0879
0.0830
0.1025
0.0732
0.0488
0.0195
0.0195
0.0049
-0.0090
-0.0190
0.0049
-0.0090
-0.0090
-0.0090
-0.0190
-0.0290
-0.0290
-0.0190
-0.0140
-0.0340
-0.0140
-0.0140
-0.0090
-0.0090
-0.0140
-0.0190
0.0391
0.0586
0.0049
-0.0730
-0.3460
-0.7560
-0.9270
-1.1570
-1.2200
-1.0300
-0.9220
-0.6830
-0.5170
-0.3560
-0.2580
-0.1070
-0.0140
0.0342
0.0537
0.0684
0.0830
0.0977
0.0928
0.0928
0.0879
0.1025
0.1123
0.1123
0.1172
0.1123
0.1123
0.1172
0.1270
0.1367
0.1221
0.1270
0.1514
0.1416
0.1367
0.1367
0.1514
0.1660
0.1709
0.1807
0.1904
0.2100
0.2197
0.2344
0.2393
0.2295
0.2539
0.2686
0.2832
0.2832
0.2881
0.2979
0.3076
0.3223
0.3223
0.3223
0.3125
0.3223
0.3125
0.2832
0.2539
0.2295
0.2148
0.1807
0.1514
0.1172
0.1074
0.0879
0.0684
0.0537
0.0439
0.0342
0.0391
0.0391
0.0391
0.0439
0.0244
0.0293
0.0391
0.0342
0.0146
0.0146
0.0195
0.0342
0.0488
0.0684
0.0879
0.1758
0.3125
0.4639
0.5371
0.7031
0.9033
1.0840
1.1572
1.1865
1.1035
0.9180
0.7959
0.5762
0.3418
0.1172
0.0195
-0.1270
-0.2050
-0.1660
-0.1410
-0.1070
-0.0730
-0.0390
-0.0340
-0.0480
-0.0530
-0.0920
-0.1170
-0.1360
-0.1410
-0.1310
-0.1270
-0.1360
-0.1510
-0.1660
-0.1800
-0.2000
-0.2190
-0.2390
-0.2440
-0.2680
-0.2530
-0.2970
-0.2930
-0.2830
-0.2880
-0.2930
-0.2340
-0.2390
-0.2530
-0.2490
-0.2530
-0.2630
-0.2830
-0.3070
-0.3170
-0.3270
-0.3220
-0.3220
-0.3320
-0.3410
-0.3170
-0.2970
-0.2880
-0.2880
-0.2730
-0.2340
-0.2240
-0.2050
-0.1800
-0.1560
-0.1410
-0.1020
-0.0730
-0.0630
-0.0480
-0.0190
0.0000
0.0098
0.0195
0.0244
0.0244
0.0391
0.0244
0.0049
0.0000
0.0195
0.0293
0.0342
0.0293
0.0293
0.0293
0.0293
0.0244
0.0098
0.0098
0.0146
0.0244
0.0195
0.0244
0.0244
0.0293
0.0391
0.0488
0.0391
0.0244
0.0195
0.0293
0.0439
0.0342
0.0244
0.0293
0.0342
0.0391
0.0342
0.0244
0.0146
0.0098
0.0244
0.0146
0.0049
0.0000
0.0049
0.0049
0.0098
0.0146
0.0098
0.0195
0.0342
0.0342
0.0293
0.0342
0.0488
0.0586
0.0488
0.0586
0.0488
0.0684
0.0586
0.0586
0.0439
0.0342
0.0342
0.0342
0.0391
0.0098
0.0098
0.0146
0.0244
0.0293
0.0293
0.0244
0.0488
0.0635
0.0732
0.0684
0.0684
0.0635
0.0879
0.1025
0.0781
0.0684
0.0684
0.0684
0.0635
0.0488
0.0342
0.0293
0.0439
0.0293
0.0195
0.0146
0.0146
0.0195
0.0293
0.0293
0.0195
0.0244
0.0391
0.0391
0.0439
0.0342
0.0342
0.0391
0.0488
0.0488
0.0391
0.0391
0.0439
0.0537
0.0586
0.0391
0.0537
0.0391
0.0439
0.0488
0.0586
0.0342
0.0391
0.0488
0.0391
0.0244
0.0244
0.0293
0.0342
0.0391
0.0342
0.0342
0.0342
0.0488
0.0439
0.0342
0.0293
0.0391
0.0488
0.0391
0.0342
0.0293
0.0244
0.0342
0.0439
0.0342
0.0293
0.0342
0.0537
0.0781
0.0684
0.0830
0.1025
0.1172
0.1318
0.1367
0.1221
0.1221
0.1221
0.1172
0.1025
0.0879
0.0635
0.0537
0.0293
0.0049
0.0098
0.0049
-0.0040
0.0195
-0.0090
-0.0140
-0.0090
-0.0040
-0.0040
-0.0040
0.0000
-0.0090
0.0098
0.0195
0.0244
0.0098
0.0391
0.0586
0.0781
0.0342
-0.0040
-0.0190
-0.3220
-0.7120
-0.9960
-1.0350
-1.0790
-0.8780
-0.6880
-0.6000
-0.4440
-0.2290
-0.0680
-0.0290
0.0391
0.0781
0.1025
0.1123
0.1270
0.1367
0.1367
0.1367
0.1514
0.1611
0.1660
0.1611
0.1709
0.1709
0.1660
0.1758
0.1904
0.1611
0.1758
0.1904
0.1855
0.1904
0.2002
0.1904
0.1855
0.2246
0.2295
0.2295
0.2490
0.2881
0.2832
0.2881
0.2979
0.3027
0.3174
0.3369
0.3369
0.3076
0.3174
0.3223
0.3271
0.3027
0.2979
0.2930
0.2734
0.2734
0.2637
0.2539
0.2393
0.2393
0.2295
0.2197
0.2051
0.1855
0.1660
0.1660
0.1514
0.1221
0.1123
0.1123
0.0977
0.0928
0.0977
0.0879
0.0781
0.0879
0.0977
0.0635
0.0488
0.0488
0.0488
0.0488
0.0488
0.0391
0.0391
0.0488
0.0537
0.0488
0.0537
0.0586
0.0684
0.0781
0.0830
0.0684
0.0684
0.0830
0.0684
0.0635
0.0586
0.0635
0.0586
0.0635
0.0537
0.0586
0.0537
0.0635
0.0732
0.0586
0.0488
0.0732
0.0586
0.0537
0.0488
0.0488
0.0439
0.0488
0.0586
0.0537
0.0342
0.0537
0.0586
0.0537
0.0537
0.0586
0.0488
0.0537
0.0635
0.0537
0.0488
0.0488
0.0488
0.0537
0.0391
0.0342
0.0342
0.0586
0.0830
0.0977
0.1221
0.1270
0.1318
0.1367
0.1318
0.1172
0.0781
0.0781
0.0635
0.0391
0.0195
0.0098
-0.0140
-0.0040
0.0049
0.0000
-0.0040
0.0342
0.0391
0.0439
0.0293
0.0098
0.0000
0.0000
-0.0040
-0.0190
-0.0290
-0.0240
-0.0090
-0.0140
-0.0140
0.0000
0.0342
0.0537
-0.0040
-0.0190
-0.2780
-0.6440
-0.9960
-1.0690
-1.1420
-1.0250
-0.8050
-0.6880
-0.5320
-0.3320
-0.1360
-0.0870
0.0049
0.0732
0.0977
0.1025
0.1221
0.1367
0.1367
0.1367
0.1318
0.1270
0.1367
0.1318
0.1367
0.1270
0.1367
0.1416
0.1465
0.1416
0.1367
0.1514
0.1709
0.1855
0.1855
0.1855
0.1904
0.2051
0.2197
0.2246
0.2197
0.2393
0.2637
0.2686
0.2783
0.2832
0.2979
0.3125
0.3320
0.3467
0.3418
0.3467
0.3564
0.3613
0.3467
0.3418
0.3223
0.3076
0.2979
0.2832
0.2588
0.2344
0.2197
0.2100
0.1904
0.1807
0.1465
0.1367
0.1318
0.1172
0.0928
0.0830
0.0732
0.0732
0.0586
0.0537
0.0537
0.0537
0.0635
0.0732
0.0830
0.0830
0.0977
0.1074
0.1123
0.1074
0.0928
0.0928
0.0879
0.0928
0.0879
0.0781
0.0732
0.0879
0.0928
0.0879
0.0635
0.0684
0.0879
0.0928
0.1025
0.0928
0.0928
0.0879
0.0928
0.0830
0.0732
0.0684
0.0635
0.0781
0.0732
0.0928
0.0732
0.0635
0.0781
0.0781
0.0830
0.0732
0.0830
0.0732
0.0635
0.0537
0.0488
0.0488
0.0439
0.0439
0.0342
0.0244
0.0195
0.0439
0.0244
0.0244
0.0146
0.0098
0.0293
0.0391
0.0342
0.0195
0.0195
0.0244
0.0342
0.0244
0.0439
0.0537
0.0830
0.0928
0.0977
0.0977
0.1074
0.1221
0.1270
0.0977
0.0879
0.0635
0.0488
0.0293
-0.0090
-0.0240
-0.0290
-0.0340
-0.0240
-0.0040
-0.0240
-0.0290
-0.0340
-0.0240
-0.0340
-0.0390
-0.0190
-0.0190
-0.0190
-0.0140
-0.0140
-0.0090
0.0049
0.0098
0.0342
0.0195
-0.0190
-0.0140
-0.0090
-0.3900
-0.7660
-0.9610
-1.0980
-1.0640
-0.8830
-0.7810
-0.5950
-0.4050
-0.2050
-0.1120
-0.0390
0.0098
0.0488
0.0684
0.0879
0.0879
0.0732
0.0830
0.1025
0.1074
0.1221
0.1172
0.1123
0.1221
0.1318
0.1270
0.1270
0.1367
0.1465
0.1514
0.1514
0.1318
0.1562
0.1465
0.1660
0.1758
0.1758
0.1807
0.2002
0.2197
0.2100
0.2100
0.2344
0.2393
0.2490
0.2539
0.2588
0.2637
0.2783
0.2930
0.3027
0.2881
0.2881
0.2930
0.2979
0.2930
0.2783
0.2686
0.2490
0.2344
0.2002
0.1758
0.1416
0.1270
0.1074
0.0928
0.0732
0.0488
0.0684
0.0537
0.0391
0.0342
0.0293
0.0391
0.0488
0.0439
0.0293
0.0293
0.0244
0.0342
0.0293
0.0293
0.0244
0.0244
0.0391
0.0342
0.0342
0.0342
0.0342
0.0391
0.0488
0.0439
0.0342
0.0342
0.0342
0.0391
0.0342
0.0293
0.0342
0.0342
0.0293
0.0293
0.0244
0.0293
0.0293
0.0342
0.0293
0.0049
0.0098
0.0098
0.0146
0.0000
-0.0090
-0.0090
-0.0140
-0.0040
0.0000
-0.0040
-0.0040
0.0049
0.0098
0.0146
0.0098
0.0146
0.0342
0.0293
0.0244
0.0098
0.0049
0.0049
0.0098
0.0000
-0.0090
-0.0040
0.0049
0.0098
0.0195
0.0244
0.0391
0.0830
0.1025
0.1025
0.1074
0.1172
0.1318
0.1318
0.1123
0.0879
0.0684
0.0586
0.0342
0.0098
0.0000
-0.0040
-0.0090
0.0098
0.0342
0.0244
0.0098
0.0049
0.0049
0.0049
-0.0040
-0.0090
-0.0140
-0.0090
0.0049
0.0098
0.0000
0.0049
0.0293
0.0684
0.0732
0.0537
0.0098
-0.1750
-0.5170
-0.7080
-1.0250
-1.1180
-1.0150
-0.9220
-0.7320
-0.5710
-0.3900
-0.2880
-0.1020
-0.0140
0.0586
0.0781
0.1123
0.1318
0.1367
0.1318
0.1367
0.1416
0.1465
0.1416
0.1367
0.1367
0.1416
0.1465
0.1514
0.1465
0.1709
0.1758
0.1904
0.1953
0.1953
0.2002
0.2148
0.2246
0.2295
0.2246
0.2246
0.2441
0.2588
0.2588
0.2686
0.2783
0.2930
0.2979
0.3125
0.3271
0.3271
0.3320
0.3516
0.3467
0.3418
0.3418
0.3369
0.3320
0.3369
0.3125
0.2783
0.2539
0.2344
0.2197
0.1904
0.1514
0.1270
0.1172
0.1074
0.0732
0.0488
0.0439
0.0342
0.0244
0.0146
0.0195
0.0049
0.0146
0.0146
0.0098
0.0049
0.0146
0.0244
0.0342
0.0488
0.0635
0.1172
0.1709
0.2979
0.4395
0.5859
0.6592
0.8643
1.0352
1.1621
1.1475
1.0742
0.9229
0.7324
0.6299
0.3662
0.1758
-0.0480
-0.1120
-0.1750
-0.1410
-0.1270
-0.1360
-0.0920
-0.0340
-0.0530
-0.0530
-0.0480
-0.0970
-0.1310
-0.1360
-0.1610
-0.1660
-0.1610
-0.1660
-0.1850
-0.2050
-0.2290
-0.2390
-0.2340
-0.2490
-0.2680
-0.2680
-0.2730
-0.2880
-0.2970
-0.2970
-0.2830
-0.2530
-0.2290
-0.2390
-0.2440
-0.2490
-0.2530
-0.2580
-0.2680
-0.3020
-0.2880
-0.2830
-0.2830
-0.2780
-0.2830
-0.2580
-0.2390
-0.2140
-0.1850
-0.1750
-0.1510
-0.1170
-0.0870
-0.0830
-0.0680
-0.0530
-0.0140
-0.0040
0.0098
0.0098
0.0098
0.0146
0.0293
0.0391
0.0293
0.0342
0.0488
0.0537
0.0586
0.0488
0.0635
0.0488
0.0537
0.0537
0.0586
0.0488
0.0586
0.0684
0.0586
0.0586
0.0684
0.0635
0.0586
0.0586
0.0635
0.0586
0.0488
0.0586
0.0586
0.0488
0.0391
0.0488
0.0488
0.0439
0.0439
0.0391
0.0439
0.0488
0.0537
0.0391
0.0244
0.0146
0.0244
0.0342
0.0195
0.0146
0.0098
0.0244
0.0293
0.0244
0.0146
0.0098
0.0098
0.0098
0.0195
0.0244
0.0146
0.0098
-0.0040
-0.0090
-0.0340
-0.0340
-0.0240
-0.0190
-0.0340
-0.0390
-0.0340
-0.0340
-0.0240
-0.0240
-0.0190
-0.0290
-0.0090
0.0000
-0.0140
-0.0190
-0.0290
-0.0240
-0.0090
0.0049
0.0146
0.0098
0.0391
0.0586
0.0635
0.0586
0.0537
0.0537
0.0781
0.0537
0.0537
0.0439
0.0391
0.0391
0.0439
0.0244
0.0195
0.0195
0.0293
0.0293
0.0195
0.0244
0.0293
0.0293
0.0342
0.0391
0.0391
0.0293
0.0391
0.0391
0.0293
0.0244
0.0146
0.0098
0.0244
0.0195
0.0049
0.0049
0.0098
0.0146
0.0049
-0.0040
0.0000
0.0098
0.0049
0.0000
-0.0140
-0.0190
-0.0140
-0.0040
-0.0190
-0.0390
-0.0340
-0.0340
-0.0290
-0.0240
-0.0290
-0.0190
-0.0290
-0.0190
-0.0340
-0.0390
-0.0480
-0.0480
-0.0530
-0.0530
-0.0730
-0.0730
-0.0680
-0.0680
-0.0630
-0.0780
-0.0830
-0.0680
-0.0630
-0.0630
-0.0920
-0.0920
-0.0780
-0.0680
-0.0580
-0.0530
-0.0390
0.0000
0.0342
0.0488
0.0684
0.0635
0.0879
0.0977
0.1025
0.0732
0.0391
0.0391
0.0244
0.0000
-0.0290
-0.0430
-0.0530
-0.0480
-0.0430
-0.0390
-0.0290
-0.0240
-0.0340
-0.0340
-0.0090
-0.0340
-0.0190
-0.0140
-0.0040
-0.0090
-0.0090
-0.0090
0.0000
0.0293
0.0635
0.0391
-0.0190
-0.1950
-0.5660
-0.7950
-1.1270
-1.2010
-1.1180
-1.0150
-0.8000
-0.6150
-0.4630
-0.3800
-0.1850
-0.0870
-0.0290
0.0049
0.0537
0.0732
0.0830
0.0879
0.0781
0.0879
0.1123
0.1172
0.1221
0.1074
0.1221
0.1318
0.1367
0.1318
0.1416
0.1367
0.1318
0.1514
0.1562
0.1416
0.1562
0.1709
0.1709
0.1660
0.1611
0.1709
0.1904
0.2002
0.1855
0.1904
0.1953
0.2051
0.2197
0.2148
0.2100
0.2197
0.2441
0.2490
0.2490
0.2490
0.2539
0.2637
0.2734
0.2637
0.2637
0.2539
0.2490
0.2344
0.2148
0.1904
0.1611
0.1514
0.1367
0.1025
0.0879
0.0732
0.0635
0.0684
0.0488
0.0391
0.0293
0.0391
0.0342
0.0293
0.0146
0.0049
0.0293
0.0342
0.0195
0.0146
0.0098
0.0146
0.0293
0.0342
0.0244
0.0195
0.0342
0.0391
0.0439
0.0391
0.0391
0.0342
0.0293
0.0391
0.0195
0.0098
0.0146
0.0146
0.0098
-0.0040
-0.0140
-0.0040
0.0000
-0.0040
-0.0040
-0.0040
0.0049
0.0098
0.0049
-0.0040
0.0098
0.0000
0.0146
0.0049
-0.0040
-0.0140
-0.0140
-0.0090
-0.0090
-0.0140
-0.0290
-0.0290
-0.0090
0.0049
-0.0240
-0.0240
-0.0140
-0.0190
-0.0190
-0.0140
-0.0140
-0.0290
-0.0190
-0.0090
-0.0240
-0.0340
-0.0090
0.0049
0.0293
0.0488
0.0586
0.0391
0.0439
0.0586
0.0293
0.0098
-0.0190
-0.0390
-0.0530
-0.0580
-0.1170
-0.1310
-0.1360
-0.1360
-0.1310
-0.1270
-0.1360
-0.1410
-0.1310
-0.1360
-0.1660
-0.1700
-0.1700
-0.1610
-0.1610
-0.1610
-0.1360
-0.1310
-0.1120
-0.1020
-0.0830
-0.0580
-0.0430
-0.0830
-0.1800
-0.5850
-0.9960
-1.1230
-1.2640
-1.2840
-1.0100
-0.8880
-0.7080
-0.5320
-0.3460
-0.2630
-0.1410
-0.0630
0.0000
0.0244
0.0635
0.0586
0.0684
0.0781
0.0928
0.0830
0.0928
0.1025
0.1074
0.1172
0.1270
0.1221
0.1172
0.1367
0.1465
0.1465
0.1465
0.1514
0.1660
0.1709
0.1758
0.1709
0.1758
0.1807
0.2051
0.2100
0.2148
0.2197
0.2393
0.2686
0.2832
0.2881
0.2979
0.3076
0.3223
0.3271
0.3369
0.3223
0.3223
0.3467
0.3320
0.3174
0.3076
0.3027
0.2881
0.2588
0.2246
0.2051
0.1855
0.1562
0.1318
0.1172
0.0879
0.0635
0.0488
0.0488
0.0342
0.0098
-0.0040
-0.0040
0.0000
-0.0140
-0.0240
-0.0190
-0.0240
-0.0140
-0.0040
-0.0140
-0.0190
0.0000
0.0049
-0.0040
-0.0090
-0.0090
0.0049
0.0000
-0.0040
-0.0090
-0.0140
-0.0040
-0.0040
-0.0190
-0.0190
-0.0140
-0.0140
-0.0090
0.0000
-0.0140
-0.0140
-0.0040
-0.0040
-0.0090
-0.0090
0.0049
0.0244
0.0391
0.0488
0.0537
0.0684
0.0684
0.0635
0.0684
0.0537
0.0488
0.0439
0.0391
0.0195
0.0098
0.0000
-0.0090
-0.0140
-0.0040
-0.0240
-0.0340
-0.0430
-0.0390
-0.0340
-0.0580
-0.0730
-0.0730
-0.0780
-0.1020
-0.1120
-0.1120
-0.1170
-0.1170
-0.0920
-0.0970
-0.0730
-0.0480
-0.0040
-0.0040
-0.0040
-0.0090
0.0342
0.0391
0.0195
-0.0040
-0.0140
-0.0340
-0.0580
-0.0830
-0.1020
-0.1120
-0.1120
-0.0970
-0.0680
-0.0780
-0.0920
-0.0970
-0.0920
-0.0920
-0.0920
-0.1170
-0.1070
-0.1070
-0.0970
-0.0970
-0.0920
-0.1020
-0.0730
-0.0430
-0.0140
-0.0390
-0.0970
-0.2680
-0.6100
-0.8000
-1.1570
-1.2350
-1.1760
-1.0590
-0.8300
-0.6390
-0.4730
-0.3900
-0.1800
-0.0870
-0.0240
0.0049
0.0488
0.0732
0.0879
0.0830
0.0879
0.0879
0.1221
0.1172
0.1123
0.1074
0.1270
0.1367
0.1270
0.1270
0.1367
0.1367
0.1416
0.1514
0.1611
0.1465
0.1562
0.1855
0.1904
0.1904
0.1855
0.1953
0.2051
0.2197
0.2197
0.2197
0.2441
0.2490
0.2588
0.2637
0.2734
0.2783
0.2930
0.3125
0.3125
0.3027
0.2979
0.3027
0.3076
0.2881
0.2588
0.2490
0.2344
0.2197
0.1904
0.1465
0.1123
0.1074
0.1025
0.0781
0.0537
0.0488
0.0391
0.0244
0.0146
0.0098
0.0000
-0.0040
0.0049
0.0000
-0.0140
-0.0190
-0.0090
-0.0040
-0.0040
-0.0040
0.0000
0.0049
0.0049
0.0098
0.0146
0.0098
0.0098
0.0146
0.0146
0.0049
0.0000
0.0049
0.0098
0.0146
0.0146
0.0000
0.0146
0.0244
0.0293
0.0342
0.0293
0.0293
0.0342
0.0488
0.0391
0.0342
0.0342
0.0391
0.0439
0.0391
0.0195
0.0195
0.0391
0.0342
0.0342
0.0244
0.0195
0.0244
0.0293
0.0244
0.0146
0.0098
0.0049
0.0195
0.0049
-0.0040
0.0049
0.0098
0.0195
0.0146
0.0098
0.0049
0.0244
0.0293
0.0195
0.0146
0.0098
0.0293
0.0537
0.0684
0.0732
0.0830
0.1025
0.1123
0.1123
0.1074
0.0830
0.0635
0.0781
0.0586
0.0342
-0.0090
-0.0340
-0.0240
-0.0140
-0.0390
-0.0430
-0.0190
-0.0240
-0.0240
-0.0290
-0.0340
-0.0390
-0.0240
-0.0090
-0.0140
-0.0190
-0.0090
0.0000
-0.0040
-0.0140
-0.0190
0.0195
0.0244
-0.0140
-0.0830
-0.4490
-0.6590
-1.0100
-1.1760
-1.2010
-1.0740
-0.8390
-0.6290
-0.4780
-0.3800
-0.1950
-0.0780
-0.0040
0.0342
0.0781
0.0781
0.0781
0.0928
0.1074
0.0977
0.1025
0.0830
0.0879
0.1074
0.0928
0.0879
0.0781
0.1025
0.0928
0.0928
0.0781
0.0781
0.0732
0.0781
0.0879
0.0977
0.0732
0.0781
0.1074
0.1172
0.1172
0.1318
0.1514
0.1758
0.1953
0.1953
0.2051
0.2148
0.2246
0.2246
0.2344
0.2441
0.2295
0.2441
0.2441
0.2441
0.2295
0.2246
0.2197
0.2100
0.1758
0.1465
0.1172
0.1074
0.0781
0.0586
0.0293
0.0000
-0.0140
-0.0140
-0.0140
-0.0390
-0.0340
-0.0240
-0.0090
-0.0340
-0.0340
-0.0290
-0.0190
-0.0190
-0.0140
-0.0140
0.0049
0.0488
0.1221
0.1709
0.2783
0.4395
0.6055
0.6982
0.8887
1.0645
1.1768
1.2158
1.2012
1.0352
0.8008
0.7031
0.4834
0.2539
0.0586
-0.0190
-0.1270
-0.1070
-0.0970
-0.0970
-0.0730
-0.0480
-0.0390
-0.0290
-0.0290
-0.0970
-0.1360
-0.1410
-0.1460
-0.1510
-0.1660
-0.1750
-0.1850
-0.1850
-0.2290
-0.2390
-0.2490
-0.2440
-0.2440
-0.2490
-0.2530
-0.2880
-0.2830
-0.2780
-0.2680
-0.2530
-0.2390
-0.2440
-0.2440
-0.2730
-0.2830
-0.2970
-0.3270
-0.3410
-0.3510
-0.3610
-0.3760
-0.3660
-0.3510
-0.3460
-0.3360
-0.3270
-0.3070
-0.2930
-0.2580
-0.2440
-0.2240
-0.2140
-0.1800
-0.1610
-0.1410
-0.1270
-0.1120
-0.0780
-0.0630
-0.0580
-0.0530
-0.0390
-0.0140
0.0000
-0.0090
-0.0140
0.0000
0.0049
0.0098
0.0195
0.0244
0.0098
0.0195
0.0342
0.0244
0.0195
0.0146
0.0342
0.0488
0.0342
0.0342
0.0244
0.0293
0.0293
0.0342
0.0293
0.0195
0.0146
0.0244
0.0146
0.0098
0.0049
0.0000
0.0000
0.0000
0.0000
-0.0190
-0.0190
-0.0040
-0.0140
-0.0240
-0.0240
-0.0190
-0.0090
-0.0090
0.0049
-0.0140
-0.0140
-0.0040
0.0000
-0.0190
-0.0240
-0.0290
-0.0340
-0.0090
-0.0190
-0.0340
-0.0340
-0.0390
-0.0240
-0.0240
-0.0390
-0.0390
-0.0290
-0.0190
-0.0480
-0.0530
-0.0530
-0.0480
-0.0340
-0.0430
-0.0480
-0.0530
-0.0390
-0.0340
-0.0390
-0.0290
-0.0480
-0.0240
-0.0290
-0.0340
-0.0390
-0.0390
-0.0390
-0.0190
-0.0290
-0.0430
-0.0390
-0.0340
-0.0340
-0.0290
-0.0240
-0.0390
-0.0390
-0.0290
-0.0340
-0.0480
-0.0530
-0.0530
-0.0480
-0.0480
-0.0580
-0.0730
-0.0780
-0.0920
-0.1020
-0.0920
-0.1270
-0.1220
-0.1220
-0.1120
-0.1170
-0.1220
-0.1310
-0.1310
-0.1170
-0.1120
-0.1310
-0.1120
-0.1120
-0.1070
-0.1020
-0.1070
-0.1070
-0.1020
-0.0870
-0.0970
-0.0970
-0.1020
-0.0920
-0.0830
-0.0920
-0.1020
-0.0920
-0.0920
-0.0920
-0.0870
-0.0830
-0.0970
-0.1020
-0.0780
-0.0780
-0.0870
-0.0870
-0.0780
-0.0730
-0.0730
-0.0780
-0.0870
-0.0920
-0.0920
-0.0830
-0.0680
-0.1020
-0.0830
-0.0680
-0.0580
-0.0340
-0.0290
-0.0190
-0.0090
-0.0040
-0.0040
-0.0040
-0.0240
-0.0040
-0.0090
-0.0190
-0.0430
-0.0680
-0.0730
-0.0780
-0.0870
-0.0830
-0.0870
-0.0780
-0.0680
-0.0730
-0.0780
-0.0830
-0.0730
-0.0730
-0.0780
-0.0780
-0.0730
-0.0680
-0.0580
-0.0630
-0.0430
-0.0140
-0.0580
-0.0530
-0.0530
-0.1850
-0.4880
-0.6730
-0.9710
-1.0490
-0.9570
-0.8780
-0.7030
-0.5020
-0.2970
-0.1950
-0.0730
-0.0090
0.0537
0.0635
0.0781
0.0684
0.0879
0.0928
0.0977
0.0879
0.0928
0.0879
0.0830
0.1025
0.0879
0.0781
0.0879
0.1025
0.1074
0.0977
0.0928
0.1123
0.1221
0.1270
0.1367
0.1270
0.1416
0.1611
0.1855
0.1562
0.1562
0.1758
0.2100
0.1953
0.2148
0.2148
0.2246
0.2393
0.2344
0.2490
0.2344
0.2344
0.2490
0.2393
0.2246
0.2100
0.2002
0.2002
0.1904
0.1758
0.1367
0.1318
0.1270
0.1123
0.0879
0.0781
0.0586
0.0635
0.0342
0.0244
0.0098
0.0000
-0.0040
0.0000
0.0000
-0.0240
-0.0090
-0.0040
0.0049
0.0146
0.0244
0.0342
0.0049
-0.0630
-0.2050
-0.3270
-0.6100
-0.8830
-1.0690
-1.1370
-1.2350
-1.2200
-1.1620
-1.1230
-1.0100
-0.8300
-0.6590
-0.5810
-0.4630
-0.2780
-0.1020
-0.0430
0.0537
0.1221
0.1514
0.1562
0.1514
0.1611
0.1807
0.1758
0.1709
0.1562
0.1416
0.1465
0.1758
0.1807
0.1758
0.1758
0.1807
0.1855
0.2051
0.2295
0.2393
0.2930
0.3223
0.3223
0.3271
0.3369
0.3564
0.3711
0.4004
0.3711
0.4053
0.4150
0.4248
0.4346
0.4590
0.4736
0.4883
0.5078
0.5225
0.5176
0.5127
0.5225
0.5273
0.5029
0.4785
0.4541
0.4102
0.3857
0.3467
0.2979
0.2588
0.2393
0.2148
0.1904
0.1465
0.1416
0.1318
0.1318
0.1367
0.1025
0.0928
0.0879
0.0879
0.0928
0.0928
0.0684
0.0684
0.0684
0.0732
0.0537
0.0635
0.0635
0.0684
0.0781
0.0684
0.0684
0.0684
0.0879
0.0781
0.0732
0.0684
0.0732
0.0635
0.0586
0.0781
0.0635
0.0586
0.0635
0.0684
0.0488
0.0342
0.0293
0.0293
0.0342
0.0244
0.0195
0.0049
0.0000
0.0195
0.0098
-0.0040
0.0049
0.0146
0.0098
0.0098
0.0244
0.0244
0.0244
0.0244
0.0244
0.0146
0.0146
0.0146
0.0098
0.0049
0.0000
-0.0040
0.0000
0.0000
0.0000
-0.0090
-0.0140
0.0000
-0.0040
0.0000
-0.0140
-0.0140
-0.0140
-0.0190
-0.0090
-0.0090
-0.0090
-0.0040
0.0293
0.0342
0.0293
0.0293
0.0342
0.0488
0.0488
0.0586
0.0537
0.0537
0.0586
0.0635
0.0537
0.0391
0.0342
0.0586
0.0488
0.0293
0.0293
0.0342
0.0195
0.0244
0.0146
0.0049
0.0049
0.0049
0.0000
-0.0040
0.0049
-0.0040
0.0000
0.0195
0.0146
0.0049
0.0098
0.0342
0.0488
0.0342
0.0293
0.0342
0.0391
0.0293
0.0391
0.0488
0.0049
0.0098
0.0146
0.0049
-0.0040
-0.0040
-0.0040
-0.0040
-0.0090
-0.0090
-0.0090
-0.0090
-0.0040
0.0000
-0.0040
-0.0090
-0.0040
0.0000
0.0000
0.0000
-0.0040
0.0098
0.0293
0.0537
0.0684
0.0781
0.0830
0.1025
0.1123
0.0830
0.0781
0.0684
0.0537
0.0488
0.0488
0.0049
-0.0040
-0.0040
-0.0040
0.0000
-0.0090
0.0049
0.0049
0.0098
-0.0140
-0.0090
-0.0140
-0.0190
-0.0090
-0.0140
-0.0190
-0.0240
0.0000
0.0000
0.0049
0.0244
0.0391
-0.0140
-0.0190
-0.1560
-0.4930
-0.8830
-0.9760
-1.0690
-1.0740
-0.8150
-0.7030
-0.5510
-0.3560
-0.1510
-0.1070
-0.0240
0.0439
0.0879
0.0928
0.1074
0.1074
0.1123
0.1123
0.1172
0.1270
0.1074
0.1172
0.1172
0.1074
0.1074
0.1123
0.1172
0.1221
0.1172
0.1172
0.1172
0.1221
0.1367
0.1416
0.1514
0.1416
0.1709
0.1758
0.1855
0.2002
0.2100
0.2051
0.2051
0.2393
0.2393
0.2344
0.2441
0.2588
0.2637
0.2539
0.2441
0.2441
0.2539
0.2539
0.2441
0.2295
0.2393
0.2344
0.2148
0.2002
0.1807
0.1709
0.1611
0.1465
0.1221
0.1221
0.1074
0.0830
0.0781
0.0830
0.0537
0.0537
0.0586
0.0537
0.0488
0.0488
0.0439
0.0439
0.0586
0.0439
0.0293
0.0293
0.0342
0.0391
0.0391
0.0391
0.0342
0.0439
0.0537
0.0488
0.0488
0.0391
0.0342
0.0586
0.0586
0.0488
0.0537
0.0537
0.0586
0.0586
0.0635
0.0537
0.0537
0.0635
0.0586
0.0537
0.0488
0.0635
0.0684
0.0732
0.0586
0.0586
0.0586
0.0586
0.0635
0.0488
0.0439
0.0488
0.0684
0.0439
0.0537
0.0439
0.0391
0.0488
0.0586
0.0635
0.0635
0.0879
0.1025
0.1123
0.1221
0.1025
0.1270
0.1416
0.1318
0.1270
0.1172
0.1123
0.0977
0.0879
0.0684
0.0586
0.0342
0.0439
0.0488
0.0488
0.0391
0.0293
0.0293
0.0439
0.0391
0.0244
0.0293
0.0342
0.0439
0.0391
0.0293
0.0244
0.0293
0.0537
0.0684
0.0488
0.0146
0.0000
0.0244
-0.2140
-0.5850
-0.9520
-1.0490
-1.0010
-0.8640
-0.6880
-0.5120
-0.4290
-0.1950
-0.0430
0.0049
0.0391
0.0879
0.1123
0.1221
0.1270
0.1270
0.1318
0.1514
0.1514
0.1416
0.1367
0.1416
0.1465
0.1465
0.1514
0.1318
0.1318
0.1514
0.1660
0.1514
0.1514
0.1611
0.1758
0.2002
0.1953
0.1953
0.2051
0.2197
0.2246
0.2393
0.2344
0.2637
0.2637
0.2734
0.2783
0.2832
0.2881
0.3027
0.3223
0.3174
0.3174
0.3076
0.3027
0.3174
0.3027
0.2783
0.2686
0.2441
0.2344
0.2100
0.1807
0.1514
0.1367
0.1318
0.1123
0.0830
0.0781
0.0684
0.0586
0.0635
0.0537
0.0342
0.0293
0.0342
0.0391
0.0439
0.0244
0.0342
0.0391
0.0439
0.0439
0.0488
0.0488
0.0635
0.0732
0.0781
0.0732
0.0830
0.0977
0.1025
0.1025
0.1074
0.1123
0.1270
0.1367
0.1221
0.1270
0.1221
0.1270
0.1318
0.1221
0.1123
0.1074
0.1025
0.1074
0.1025
0.0928
0.0830
0.0781
0.0928
0.0830
0.0781
0.0830
0.0928
0.0977
0.1025
0.1025
0.0977
0.0977
0.1025
0.1025
0.0879
0.0879
0.0928
0.0977
0.0781
0.0732
0.0635
0.0586
0.0635
0.0635
0.0635
0.0684
0.0781
0.0928
0.0977
0.0928
0.0830
0.0781
0.0781
0.0830
0.0635
0.0537
0.0391
0.0391
0.0342
0.0244
0.0195
0.0244
0.0195
0.0391
0.0244
0.0146
0.0244
0.0293
0.0342
0.0146
0.0049
0.0244
0.0293
0.0244
0.0195
0.0244
0.0488
0.0684
0.0684
0.0049
-0.1360
-0.5270
-0.8880
-1.0100
-1.1520
-1.1710
-0.9080
-0.7810
-0.6150
-0.4440
-0.2490
-0.1800
-0.0680
0.0098
0.0586
0.0781
0.0879
0.1123
0.1318
0.1270
0.1172
0.1123
0.1172
0.1270
0.1270
0.1221
0.1318
0.1318
0.1367
0.1416
0.1514
0.1611
0.1514
0.1611
0.1855
0.1807
0.1807
0.2051
0.2246
0.2393
0.2344
0.2393
0.2441
0.2539
0.2637
0.2588
0.2539
0.2637
0.2734
0.2783
0.2686
0.2686
0.2832
0.3027
0.3174
0.3271
0.3223
0.3320
0.3369
0.3320
0.3076
0.2783
0.2490
0.2295
0.2100
0.1758
0.1270
0.1123
0.0977
0.0830
0.0537
0.0391
0.0391
0.0342
0.0195
0.0195
0.0244
0.0293
0.0342
0.0439
0.0488
0.0391
0.0439
0.0488
0.0537
0.0586
0.0439
0.0342
0.0293
0.0439
0.0293
0.0293
0.0244
0.0195
0.0391
0.0293
0.0195
0.0342
0.0391
0.0391
0.0439
0.0293
0.0244
0.0293
0.0391
0.0342
0.0146
0.0098
0.0049
0.0146
-0.0040
0.0098
-0.0140
-0.0290
-0.0140
-0.0190
-0.0340
-0.0530
-0.0630
-0.0480
-0.0780
-0.0780
-0.0630
-0.0630
-0.0580
-0.0480
-0.0530
-0.0530
-0.0480
-0.0340
-0.0240
-0.0290
-0.0340
-0.0390
-0.0140
0.0000
0.0195
0.0439
0.0635
0.0781
0.0928
0.0879
0.0977
0.0977
0.0879
0.0879
0.0781
0.0635
0.0439
0.0342
0.0244
0.0146
-0.0040
0.0195
0.0146
0.0146
0.0098
0.0000
-0.0140
-0.0190
-0.0040
-0.0190
-0.0340
-0.0390
-0.0480
-0.0190
-0.0390
-0.0430
-0.0340
-0.0140
0.0146
-0.0190
-0.0970
-0.3270
-0.7120
-0.9130
-1.1910
-1.2790
-1.1760
-1.0490
-0.8100
-0.6290
-0.4680
-0.3760
-0.1850
-0.1070
-0.0290
-0.0140
0.0098
0.0195
0.0391
0.0537
0.0342
0.0293
0.0293
0.0391
0.0488
0.0293
0.0195
0.0195
0.0342
0.0439
0.0391
0.0537
0.0781
0.0879
0.1074
0.1172
0.1221
0.1367
0.1562
0.1611
0.1758
0.1807
0.1709
0.1953
0.2246
0.2295
0.2246
0.2295
0.2441
0.2637
0.2686
0.2686
0.2832
0.2734
0.2832
0.2832
0.2734
0.2588
0.2539
0.2783
0.2490
0.2246
0.1855
0.1709
0.1514
0.1318
0.0977
0.0781
0.0586
0.0586
0.0244
0.0146
0.0049
0.0146
0.0000
0.0098
-0.0040
-0.0090
-0.0090
-0.0090
-0.0040
-0.0090
-0.0140
-0.0140
-0.0040
-0.0090
-0.0040
-0.0090
-0.0140
-0.0040
0.0049
0.0000
-0.0040
0.0195
0.0635
0.1074
0.1904
0.3027
0.4639
0.5469
0.7178
0.9082
1.0791
1.1328
1.1865
1.1084
0.9131
0.7715
0.5469
0.3467
0.1660
0.0635
-0.1070
-0.1750
-0.1410
-0.1170
-0.1220
-0.0870
-0.0630
-0.0580
-0.0480
-0.0730
-0.1170
-0.1410
-0.1610
-0.1700
-0.1850
-0.1950
-0.2050
-0.2000
-0.2390
-0.2490
-0.2930
-0.3120
-0.3020
-0.3020
-0.3070
-0.3270
-0.3460
-0.3320
-0.3020
-0.2970
-0.2730
-0.2880
-0.3070
-0.3220
-0.3410
-0.3560
-0.3900
-0.3950
-0.4100
-0.4190
-0.4340
-0.4390
-0.4340
-0.4240
-0.4190
-0.4150
-0.3950
-0.3900
-0.3610
-0.3320
-0.3170
-0.3020
-0.2880
-0.2580
-0.2340
-0.2240
-0.2050
-0.1750
-0.1410
-0.1270
-0.1170
-0.0970
-0.0730
-0.0630
-0.0530
-0.0480
-0.0580
-0.0430
-0.0480
-0.0190
-0.0240
-0.0290
-0.0290
-0.0190
-0.0040
0.0049
0.0439
0.0635
0.1123
0.1416
0.1953
0.2393
0.2930
0.3271
0.4102
0.4785
0.5420
0.5859
0.6787
0.7812
0.8594
0.8740
0.9033
0.9668
1.0059
0.9668
0.8984
0.8643
0.8154
0.7666
0.6104
0.3809
0.0488
-0.0090
-0.0920
-0.1220
-0.1700
-0.1950
-0.1900
-0.2140
-0.2340
-0.2390
-0.2580
-0.2730
-0.2970
-0.3120
-0.3460
-0.3800
-0.3800
-0.3800
-0.3950
-0.4100
-0.4340
-0.4540
-0.4440
-0.4390
-0.4240
-0.4190
-0.4100
-0.4290
-0.4490
-0.4630
-0.5070
-0.5370
-0.5660
-0.5850
-0.6200
-0.6440
-0.6540
-0.6490
-0.6390
-0.6290
-0.6150
-0.5950
-0.5560
-0.5170
-0.4830
-0.4630
-0.4150
-0.3660
-0.3170
-0.2970
-0.2530
-0.2050
-0.1560
-0.1360
-0.1070
-0.0970
-0.0920
-0.0780
-0.0630
-0.0630
-0.0680
-0.0680
-0.0680
-0.0530
-0.0480
-0.0580
-0.0630
-0.0480
-0.0340
-0.0340
-0.0290
-0.0340
-0.0240
-0.0140
-0.0040
-0.0090
-0.0140
-0.0090
-0.0040
-0.0040
-0.0240
-0.0190
-0.0140
-0.0190
-0.0190
-0.0190
-0.0390
-0.0290
-0.0290
-0.0340
-0.0480
-0.0580
-0.0630
-0.0630
-0.0530
-0.0530
-0.0680
-0.0680
-0.0580
-0.0480
-0.0430
-0.0630
-0.0530
-0.0480
-0.0430
-0.0480
-0.0530
-0.0480
-0.0430
-0.0390
-0.0340
-0.0480
-0.0480
-0.0390
-0.0340
-0.0340
-0.0390
-0.0430
-0.0390
-0.0430
-0.0430
-0.0480
-0.0530
-0.0530
-0.0430
-0.0390
-0.0530
-0.0630
-0.0680
-0.0630
-0.0580
-0.0580
-0.0630
-0.0530
-0.0480
-0.0580
-0.0630
-0.0680
-0.0680
-0.0580
-0.0480
-0.0390
-0.0480
-0.0430
-0.0340
-0.0340
-0.0340
-0.0390
-0.0340
-0.0290
-0.0240
-0.0290
-0.0390
-0.0390
-0.0340
-0.0340
-0.0480
-0.0430
-0.0390
-0.0390
-0.0340
-0.0390
-0.0480
-0.0480
-0.0340
-0.0340
-0.0340
-0.0530
-0.0530
-0.0480
-0.0390
-0.0530
-0.0580
-0.0480
-0.0430
-0.0340
-0.0390
-0.0480
-0.0530
-0.0390
-0.0430
-0.0390
-0.0630
-0.0680
-0.0780
-0.0730
-0.0730
-0.0680
-0.0870
-0.0730
-0.0480
-0.0530
-0.0480
-0.0430
-0.0340
-0.0290
-0.0390
-0.0430
-0.0480
-0.0630
-0.0530
-0.0680
-0.0780
-0.0830
-0.0780
-0.0730
-0.0730
-0.0630
-0.0680
-0.0580
-0.0390
-0.0290
-0.0480
-0.0530
-0.0430
-0.0090
-0.0240
-0.0340
-0.0480
-0.0530
-0.0240
-0.0040
-0.0240
-0.0290
-0.0040
0.0098
0.0293
0.0342
0.0293
0.0293
0.0244
0.0342
0.0000
-0.0040
-0.0140
-0.0140
0.0000
-0.0340
-0.0530
-0.0580
-0.0480
-0.0480
-0.0480
-0.0580
-0.0630
-0.0630
-0.0580
-0.0630
-0.0830
-0.0830
-0.0780
-0.0730
-0.0730
-0.0730
-0.0780
-0.0680
-0.0580
-0.0340
-0.0140
-0.0780
-0.1410
-0.1850
-0.5370
-0.9220
-1.1760
-1.2010
-1.2200
-0.9760
-0.7860
-0.7080
-0.5370
-0.3270
-0.1850
-0.1560
-0.0870
-0.0290
0.0000
0.0049
0.0098
0.0098
0.0244
0.0293
0.0342
0.0244
0.0293
0.0293
0.0439
0.0537
0.0537
0.0439
0.0391
0.0439
0.0537
0.0537
0.0439
0.0488
0.0635
0.0684
0.0781
0.0879
0.0977
0.1074
0.1221
0.1367
0.1270
0.1318
0.1465
0.1611
0.1660
0.1562
0.1611
0.1758
0.1855
0.1855
0.1904
0.1904
0.1758
0.1904
0.1904
0.1660
0.1562
0.1562
0.1611
0.1270
0.1074
0.0928
0.0684
0.0684
0.0537
0.0342
0.0146
0.0098
0.0098
0.0049
-0.0090
-0.0190
-0.0290
-0.0240
-0.0190
-0.0340
-0.0390
-0.0430
-0.0340
-0.0340
-0.0340
-0.0390
-0.0430
-0.0340
-0.0290
-0.0340
-0.0390
-0.0430
-0.0340
-0.0340
-0.0390
-0.0480
-0.0480
-0.0430
-0.0240
-0.0240
-0.0290
-0.0240
-0.0090
0.0049
0.0098
-0.0040
-0.0040
0.0049
-0.0040
-0.0090
-0.0190
-0.0340
-0.0390
-0.0340
-0.0480
-0.0630
-0.0680
-0.0680
-0.0730
-0.0730
-0.0830
-0.0870
-0.0970
-0.0870
-0.0830
-0.0970
-0.1070
-0.0970
-0.0870
-0.0920
-0.0970
-0.0830
-0.0730
-0.0680
-0.0530
-0.0390
-0.0190
-0.0040
0.0342
0.0293
0.0391
0.0342
0.0293
0.0391
0.0195
0.0098
-0.0090
-0.0190
-0.0290
-0.0480
-0.0780
-0.0920
-0.0830
-0.1020
-0.0970
-0.1170
-0.1310
-0.1360
-0.1360
-0.1220
-0.1170
-0.1310
-0.1270
-0.1220
-0.1120
-0.1170
-0.1220
-0.1270
-0.1120
-0.1020
-0.0830
-0.0970
-0.1460
-0.1660
-0.3410
-0.6980
-1.0490
-1.2060
-1.2590
-1.1570
-0.9320
-0.8440
-0.6830
-0.5070
-0.3270
-0.2490
-0.2100
-0.1360
-0.1070
-0.1020
-0.0870
-0.0580
-0.0240
0.0000
0.0488
0.0684
0.0830
0.0879
0.1074
0.1172
0.1270
0.1318
0.1270
0.1318
0.1562
0.1660
0.1758
0.1904
0.2100
0.2197
0.2344
0.2490
0.2539
0.2637
0.2832
0.3076
0.3223
0.3271
0.3662
0.3857
0.4053
0.4199
0.4443
0.4688
0.4883
0.4980
0.4980
0.5078
0.5029
0.5078
0.5127
0.4834
0.4639
0.4541
0.4297
0.4004
0.3564
0.3369
0.3027
0.2832
0.2588
0.2490
0.2197
0.2148
0.2051
0.1953
0.1855
0.1758
0.1611
0.1514
0.1611
0.1465
0.1123
0.1123
0.1172
0.1270
0.1123
0.1074
0.1074
0.0928
0.1123
0.1074
0.0879
0.0684
0.0732
0.0684
0.0635
0.0391
0.0391
0.0439
0.0488
0.0293
0.0293
0.0293
0.0195
0.0195
0.0195
0.0049
-0.0090
-0.0140
-0.0190
-0.0140
-0.0390
-0.0480
-0.0430
-0.0480
-0.0480
-0.0390
-0.0730
-0.0730
-0.0430
-0.0580
-0.0680
-0.0680
-0.0730
-0.0730
-0.0680
-0.0730
-0.0920
-0.0920
-0.0830
-0.0870
-0.0970
-0.1020
-0.0970
-0.0920
-0.0920
-0.0870
-0.0830
-0.0730
-0.0430
-0.0240
-0.0140
-0.0240
-0.0190
-0.0090
-0.0290
-0.0290
-0.0240
-0.0480
-0.0580
-0.0630
-0.0920
-0.1220
-0.1310
-0.1310
-0.1270
-0.1410
-0.1410
-0.1460
-0.1610
-0.1460
-0.1510
-0.1610
-0.1660
-0.1610
-0.1610
-0.1560
-0.1660
-0.1610
-0.1560
-0.1460
-0.1170
-0.0970
-0.1700
-0.1900
-0.3170
-0.6680
-1.0540
-1.1520
-1.2590
-1.2640
-0.9710
-0.8490
-0.6780
-0.4980
-0.2830
-0.2190
-0.1360
-0.0830
-0.0340
-0.0140
-0.0140
-0.0140
-0.0190
-0.0190
-0.0140
-0.0090
-0.0190
-0.0240
-0.0290
-0.0240
-0.0290
-0.0340
-0.0390
-0.0290
-0.0390
-0.0430
-0.0340
-0.0390
-0.0390
-0.0390
-0.0290
-0.0190
-0.0340
-0.0290
-0.0240
-0.0140
0.0000
-0.0040
-0.0090
0.0293
0.0439
0.0439
0.0439
0.0342
0.0342
0.0439
0.0586
-0.0090
-0.0290
-0.0340
-0.0780
-0.0780
-0.1360
-0.1510
-0.1660
-0.1750
-0.1800
-0.1850
-0.1950
-0.1510
-0.1410
-0.1410
-0.1510
-0.1660
-0.1800
-0.1850
-0.2000
-0.2530
-0.2580
-0.2730
-0.2880
-0.2730
-0.2680
-0.2680
-0.2680
-0.2580
-0.2580
-0.2580
-0.2630
-0.2680
-0.2190
-0.1950
-0.1170
0.0049
0.1367
0.2197
0.4053
0.5957
0.7471
0.8057
0.8350
0.7520
0.5566
0.4590
0.2441
0.0293
-0.1610
-0.2630
-0.3950
-0.3760
-0.3610
-0.3610
-0.3410
-0.3220
-0.3220
-0.3220
-0.3460
-0.4290
-0.5020
-0.5270
-0.5610
-0.5900
-0.6200
-0.6440
-0.6640
-0.6830
-0.7030
-0.7080
-0.7120
-0.6880
-0.6590
-0.6440
-0.6150
-0.6200
-0.6250
-0.6100
-0.5900
-0.5950
-0.5660
-0.5710
-0.5850
-0.5810
-0.5850
-0.5850
-0.5760
-0.5660
-0.5460
-0.5370
-0.5270
-0.5120
-0.4930
-0.4830
-0.4590
-0.4490
-0.4540
-0.4150
-0.3710
-0.3320
-0.2930
-0.2780
-0.2340
-0.1800
-0.1360
-0.1120
-0.0680
-0.0240
0.0195
0.0244
0.0293
0.0439
0.0586
0.0586
0.0830
0.0977
0.0977
0.1123
0.1416
0.1514
0.1514
0.1514
0.1465
0.1562
0.1318
0.1172
0.0879
0.0586
0.0391
0.0293
0.0195
0.0098
0.0146
0.0293
0.0488
0.0488
0.0537
0.0537
0.0537
0.0488
0.0342
0.0293
0.0146
0.0098
0.0098
0.0049
-0.0040
0.0244
0.0293
0.0391
0.0586
0.0684
0.0635
0.0732
0.0928
0.0635
0.0439
0.0342
0.0195
0.0098
0.0146
0.0049
-0.0040
0.0098
0.0391
0.0391
0.0439
0.0537
0.0684
0.0684
0.0586
0.0537
0.0293
0.0293
0.0342
0.0342
0.0244
0.0098
0.0146
0.0098
0.0098
0.0146
0.0195
-0.0040
-0.0090
0.0000
-0.0240
-0.0140
-0.0290
-0.0290
-0.0240
-0.0190
-0.0390
-0.0430
-0.0140
-0.0140
-0.0190
-0.0240
-0.0290
-0.0190
-0.0240
-0.0190
-0.0430
-0.0480
-0.0480
-0.0580
-0.0630
-0.0730
-0.0830
-0.0870
-0.0730
-0.0870
-0.1070
-0.1070
-0.1020
-0.0920
-0.1170
-0.1170
-0.1310
-0.1360
-0.1310
-0.1410
-0.1610
-0.1660
-0.1410
-0.1270
-0.1270
-0.1220
-0.1270
-0.1170
-0.1070
-0.1020
-0.1120
-0.1170
-0.1170
-0.0920
-0.0920
-0.0970
-0.0970
-0.0830
-0.0630
-0.0480
-0.0390
-0.0480
-0.0390
-0.0340
-0.0340
-0.0390
-0.0340
-0.0530
-0.0430
-0.0390
-0.0630
-0.0530
-0.0390
-0.0290
-0.0040
0.0098
0.0342
0.0537
0.0830
0.0879
0.0928
0.0928
0.0586
0.0586
0.0488
0.0391
-0.0140
-0.0240
-0.0390
-0.0480
-0.0680
-0.0780
-0.0580
-0.0830
-0.0730
-0.0780
-0.0920
-0.1020
-0.0970
-0.1020
-0.1070
-0.1270
-0.1270
-0.1270
-0.1220
-0.1020
-0.0870
-0.0830
-0.1270
-0.1270
-0.2930
-0.4730
-0.8440
-1.1270
-1.2150
-1.2150
-1.0590
-0.8590
-0.6880
-0.5900
-0.3950
-0.2530
-0.1660
-0.1220
-0.0780
-0.0430
-0.0480
-0.0390
-0.0340
-0.0390
-0.0040
-0.0090
-0.0140
-0.0140
0.0049
0.0049
-0.0040
-0.0040
0.0049
0.0098
0.0195
0.0244
0.0195
0.0146
0.0146
0.0342
0.0391
0.0293
0.0342
0.0488
0.0586
0.0635
0.0684
0.0732
0.0879
0.0977
0.1172
0.1172
0.1416
0.1416
0.1514
0.1562
0.1611
0.1562
0.1465
0.1660
0.1562
0.1367
0.1221
0.1270
0.1074
0.0977
0.0732
0.0439
0.0244
0.0098
-0.0040
-0.0190
-0.0390
-0.0430
-0.0390
-0.0630
-0.0530
-0.0680
-0.0780
-0.0430
-0.0480
-0.0480
-0.0530
-0.0390
-0.0340
-0.0290
-0.0190
-0.0580
-0.0530
-0.0480
-0.0430
-0.0580
-0.0630
-0.0580
-0.0530
-0.0730
-0.0530
-0.0680
-0.0630
-0.0340
-0.0530
-0.0480
-0.0390
-0.0580
-0.0290
-0.0240
-0.0290
-0.0390
-0.0480
-0.0430
-0.0390
-0.0530
-0.0730
-0.0780
-0.0680
-0.0780
-0.0730
-0.0730
-0.0830
-0.0920
-0.0780
-0.0970
-0.0870
-0.1070
-0.1170
-0.1070
-0.0920
-0.1120
-0.1220
-0.1120
-0.0870
-0.0830
-0.0680
-0.0630
-0.0480
-0.0340
-0.0390
-0.0340
-0.0430
-0.0430
-0.0390
-0.0390
-0.0580
-0.0970
-0.1120
-0.1120
-0.1310
-0.1410
-0.1460
-0.1510
-0.1510
-0.1310
-0.1510
-0.1610
-0.1510
-0.1360
-0.1360
-0.1410
-0.1460
-0.1310
-0.1360
-0.1360
-0.1170
-0.1270
-0.1070
-0.0970
-0.0830
-0.1310
-0.1560
-0.1800
-0.4290
-0.8300
-1.1270
-1.1570
-1.1810
-0.9610
-0.7610
-0.6640
-0.4780
-0.2530
-0.1460
-0.1120
-0.0480
-0.0090
0.0000
-0.0040
0.0146
0.0146
0.0293
0.0293
0.0342
0.0391
0.0391
0.0439
0.0342
0.0586
0.0635
0.0635
0.0586
0.0537
0.0684
0.0732
0.0830
0.0781
0.0781
0.0781
0.0928
0.1025
0.1074
0.1074
0.1074
0.1367
0.1465
0.1416
0.1367
0.1611
0.1758
0.1807
0.1807
0.1807
0.1758
0.1807
0.1855
0.1709
0.1660
0.1660
0.1660
0.1465
0.1318
0.1221
0.0928
0.0732
0.0586
0.0537
0.0098
0.0049
0.0000
-0.0090
-0.0340
-0.0480
-0.0390
-0.0580
-0.0480
-0.0430
-0.0630
-0.0530
-0.0390
-0.0240
-0.0190
-0.0240
-0.0140
-0.0090
0.0098
0.0098
0.0146
0.0244
0.0342
0.0439
0.0293
0.0098
0.0000
0.0049
0.0146
0.0146
0.0000
-0.0090
0.0049
-0.0040
-0.0040
-0.0140
-0.0190
-0.0140
-0.0090
-0.0040
-0.0140
-0.0340
-0.0240
-0.0290
-0.0290
-0.0240
-0.0140
-0.0340
-0.0140
-0.0190
-0.0240
-0.0190
-0.0140
-0.0190
-0.0190
-0.0190
-0.0190
-0.0290
-0.0290
-0.0290
-0.0240
-0.0430
-0.0240
-0.0090
-0.0040
0.0098
0.0195
0.0293
0.0488
0.0684
0.0781
0.0537
0.0391
0.0293
0.0293
0.0293
0.0049
-0.0290
-0.0390
-0.0390
-0.0580
-0.0780
-0.0780
-0.0780
-0.0830
-0.0780
-0.0730
-0.1070
-0.1070
-0.0920
-0.1120
-0.1120
-0.1170
-0.1170
-0.0920
-0.0970
-0.1120
-0.1020
-0.0580
-0.0530
-0.0480
-0.1410
-0.3410
-0.5070
-0.8830
-1.2010
-1.2890
-1.2450
-1.0840
-0.8640
-0.6830
-0.6100
-0.4100
-0.2390
-0.1560
-0.1220
-0.0630
-0.0290
-0.0090
0.0000
0.0000
0.0000
-0.0040
0.0049
0.0146
0.0195
0.0244
0.0244
0.0244
0.0439
0.0391
0.0391
0.0488
0.0488
0.0635
0.0732
0.0635
0.0635
0.0684
0.0781
0.0928
0.0977
0.1025
0.1025
0.1172
0.1367
0.1416
0.1367
0.1318
0.1611
0.1758
0.1758
0.1758
0.1855
0.2002
0.2051
0.2148
0.2100
0.2002
0.1953
0.1904
0.1709
0.1367
0.1123
0.0928
0.0977
0.0244
0.0146
-0.0090
-0.0240
-0.0340
-0.0390
-0.0530
-0.0680
-0.0730
-0.0580
-0.0680
-0.0830
-0.0680
-0.0730
-0.0730
-0.0730
-0.0830
-0.0920
-0.0920
-0.0480
-0.0480
-0.0290
0.0439
0.1416
0.2832
0.3711
0.5518
0.6445
0.7031
0.7324
0.7715
0.7861
0.5713
0.4736
0.0586
-0.1900
-0.2880
-0.3410
-0.3950
-0.3510
-0.2680
-0.2290
-0.1510
-0.0920
-0.0830
-0.0730
-0.0630
-0.0970
-0.1120
-0.1120
-0.1020
-0.1120
-0.1460
-0.1610
-0.1750
-0.1660
-0.1800
-0.1850
-0.1900
-0.1950
-0.2190
-0.2050
-0.1900
-0.2000
-0.1610
-0.1410
-0.1660
-0.1900
-0.2050
-0.2100
-0.2190
-0.2390
-0.2630
-0.2730
-0.2780
-0.2830
-0.2680
-0.2830
-0.2970
-0.2680
-0.2490
-0.2340
-0.2140
-0.1850
-0.1610
-0.1410
-0.1070
-0.0870
-0.0780
-0.0680
-0.0340
-0.0290
-0.0340
-0.0290
-0.0240
-0.0290
-0.0040
-0.0190
-0.0240
-0.0140
-0.0090
-0.0140
-0.0140
-0.0140
-0.0140
-0.0090
-0.0040
0.0049
-0.0090
-0.0090
-0.0040
0.0098
0.0098
0.0049
-0.0040
0.0098
0.0146
0.0146
0.0098
0.0049
0.0098
0.0049
0.0098
-0.0040
-0.0090
-0.0040
0.0049
-0.0090
-0.0140
-0.0190
-0.0140
-0.0190
-0.0240
-0.0290
-0.0340
-0.0340
-0.0240
-0.0140
-0.0390
-0.0340
-0.0340
-0.0340
-0.0290
-0.0240
-0.0430
-0.0430
-0.0240
-0.0290
-0.0390
-0.0340
-0.0290
-0.0190
-0.0290
-0.0290
-0.0340
-0.0390
-0.0240
-0.0340
-0.0480
-0.0530
-0.0480
-0.0480
-0.0430
-0.0580
-0.0680
-0.0580
-0.0430
-0.0340
-0.0480
-0.0390
-0.0390
-0.0240
-0.0240
-0.0290
-0.0430
-0.0580
-0.0090
-0.0340
-0.0290
-0.0390
-0.0240
-0.0240
-0.0290
-0.0290
-0.0290
-0.0290
-0.0190
-0.0090
-0.0240
-0.0290
-0.0340
-0.0390
-0.0190
-0.0090
-0.0290
-0.0190
-0.0090
-0.0040
0.0000
-0.0140
-0.0190
-0.0140
0.0098
0.0098
-0.0190
-0.0140
-0.0040
0.0049
-0.0090
-0.0140
-0.0090
-0.0040
0.0049
0.0049
-0.0090
-0.0190
-0.0090
-0.0040
-0.0090
-0.0240
-0.0190
-0.0190
-0.0040
0.0098
-0.0140
-0.0190
-0.0090
0.0000
0.0049
0.0049
0.0000
0.0049
0.0098
0.0146
0.0098
0.0000
0.0146
0.0146
0.0146
0.0244
0.0391
0.0439
0.0684
0.0830
0.0635
0.0684
0.0781
0.0684
0.0537
0.0488
0.0146
-0.0040
-0.0190
-0.0340
-0.0530
-0.0680
-0.0780
-0.0630
-0.0630
-0.0530
-0.0680
-0.0780
-0.0830
-0.0480
-0.0730
-0.0780
-0.0730
-0.0730
-0.0530
-0.0530
-0.0530
-0.0580
-0.0240
-0.0090
-0.0580
-0.0970
-0.2930
-0.4630
-0.8200
-1.0840
-1.1570
-1.1420
-0.9710
-0.7420
-0.5810
-0.4880
-0.2880
-0.1360
-0.0580
-0.0290
0.0098
0.0342
0.0391
0.0439
0.0537
0.0586
0.0684
0.0830
0.0830
0.0879
0.0781
0.0732
0.0732
0.0928
0.1074
0.0928
0.0977
0.0977
0.1123
0.1123
0.1123
0.1172
0.1123
0.1270
0.1367
0.1318
0.1416
0.1416
0.1514
0.1709
0.1709
0.1709
0.1855
0.1953
0.2148
0.2051
0.2002
0.2197
0.2100
0.2246
0.2197
0.2100
0.2100
0.2100
0.2100
0.2148
0.2246
0.1904
0.1807
0.1709
0.1562
0.1367
0.1221
0.1221
0.1074
0.0928
0.0830
0.0586
0.0586
0.0537
0.0488
0.0391
0.0342
0.0342
0.0391
0.0391
0.0293
0.0293
0.0342
0.0342
0.0391
0.0342
0.0244
0.0195
0.0391
0.0342
0.0293
0.0342
0.0342
0.0391
0.0342
0.0439
0.0293
0.0293
0.0244
0.0439
0.0537
0.0293
0.0293
0.0488
0.0391
0.0342
0.0293
0.0195
0.0146
0.0293
0.0244
-0.0040
0.0049
0.0098
0.0195
0.0049
0.0000
0.0000
0.0098
0.0098
0.0049
0.0049
0.0000
0.0146
0.0293
0.0293
0.0391
0.0635
0.0635
0.0684
0.0781
0.0830
0.0635
0.0586
0.0586
0.0488
0.0244
0.0098
-0.0040
-0.0140
-0.0290
-0.0390
-0.0530
-0.0530
-0.0530
-0.0580
-0.0730
-0.0830
-0.0870
-0.0730
-0.0680
-0.0780
-0.0830
-0.0780
-0.0680
-0.0580
-0.0580
-0.0630
-0.0340
0.0049
-0.0240
-0.0390
-0.0730
-0.2290
-0.5660
-0.7610
-1.0790
-1.1570
-1.0300
-0.9320
-0.7370
-0.5660
-0.3610
-0.2390
-0.1120
-0.0340
0.0293
0.0391
0.0488
0.0684
0.0830
0.0830
0.0781
0.1025
0.1270
0.1221
0.1221
0.1318
0.1270
0.1416
0.1562
0.1562
0.1562
0.1562
0.1562
0.1660
0.1807
0.1904
0.1807
0.2002
0.2197
0.2197
0.2100
0.2051
0.2295
0.2344
0.2539
0.2539
0.2588
0.2734
0.2881
0.3027
0.3125
0.3076
0.3076
0.3223
0.3223
0.3223
0.3125
0.3076
0.3027
0.2979
0.2734
0.2441
0.2100
0.2002
0.1807
0.1514
0.1221
0.1123
0.1025
0.0830
0.0732
0.0635
0.0537
0.0488
0.0488
0.0488
0.0244
0.0244
0.0391
0.0342
0.0244
0.0195
0.0146
0.0146
0.0098
0.0000
-0.0240
-0.0290
-0.0340
-0.0480
-0.0680
-0.0730
-0.0830
-0.0870
-0.0730
-0.0780
-0.0870
-0.0780
-0.0430
-0.0240
0.0195
0.0146
0.0146
0.0195
0.0244
-0.0140
-0.0390
0.0244
0.1221
0.1074
-0.3760
-0.5710
-0.8880
-1.0440
-1.1080
-1.1370
-1.1180
-1.0440
-0.9320
-0.8540
-0.6930
-0.5320
-0.3850
-0.3070
-0.2050
-0.1410
-0.0920
-0.0530
0.0049
0.0244
0.0439
0.0586
0.0537
0.0391
0.0635
0.0537
0.0391
0.0342
0.0879
0.1025
0.1123
0.1465
0.1270
0.1318
0.1514
0.1660
0.1318
0.1416
0.1562
0.1367
0.1709
0.1807
0.1953
0.2100
0.2393
0.2539
0.2588
0.2783
0.3125
0.3223
0.3516
0.3760
0.3906
0.4004
0.4199
0.4297
0.4150
0.4053
0.3809
0.3613
0.3418
0.3223
0.2637
0.2197
0.2051
0.1855
0.1416
0.1074
0.0732
0.0586
0.0439
0.0342
0.0049
0.0098
0.0146
0.0244
0.0244
0.0244
0.0439
0.0586
0.1318
0.1855
0.3027
0.4346
0.5908
0.6738
0.8691
1.0352
1.1328
1.1426
1.1523
1.0303
0.8057
0.6738
0.4932
0.2832
0.0000
-0.0580
-0.1310
-0.1410
-0.1070
-0.1020
-0.0430
-0.0140
0.0342
0.0391
0.0439
0.0244
-0.0240
-0.0430
-0.0580
-0.0530
-0.0730
-0.0830
-0.1020
-0.1170
-0.1360
-0.1460
-0.1850
-0.2240
-0.2290
-0.2240
-0.2240
-0.2680
-0.2830
-0.2880
-0.3220
-0.2970
-0.3320
-0.3270
-0.3070
-0.2930
-0.3360
-0.3560
-0.3800
-0.4100
-0.4290
-0.4340
-0.4440
-0.4440
-0.4050
-0.3800
-0.3660
-0.3560
-0.2970
-0.2830
-0.2530
-0.2190
-0.1950
-0.1850
-0.1610
-0.1310
-0.1310
-0.1220
-0.1120
-0.1070
-0.0970
-0.0830
-0.0630
-0.0630
-0.0340
-0.0240
-0.0090
0.0049
0.0098
0.0098
0.0195
0.0293
0.0195
0.0195
0.0195
0.0293
0.0391
0.0293
0.0293
0.0391
0.0586
0.0586
0.0537
0.0439
0.0391
0.0439
0.0439
0.0439
0.0195
0.0293
0.0391
0.0439
0.0488
0.0342
0.0391
0.0537
0.0635
0.0586
0.0488
0.0439
0.0342
0.0342
0.0391
0.0195
0.0244
0.0244
0.0195
0.0244
0.0244
0.0098
0.0098
0.0098
0.0049
-0.0040
-0.0090
0.0049
0.0195
-0.0040
0.0049
-0.0140
-0.0140
-0.0090
-0.0040
-0.0140
-0.0240
-0.0240
-0.0240
-0.0090
-0.0190
-0.0140
-0.0090
-0.0140
0.0098
0.0000
-0.0040
-0.0090
0.0098
0.0098
0.0000
-0.0090
-0.0090
0.0000
0.0049
0.0049
-0.0190
-0.0140
-0.0090
-0.0040
-0.0140
-0.0190
-0.0240
-0.0190
-0.0290
-0.0340
-0.0480
-0.0580
-0.0680
-0.0730
-0.0630
-0.0920
-0.1020
-0.0970
-0.0920
-0.0870
-0.0920
-0.0780
-0.0730
-0.0530
-0.0480
-0.0480
-0.0480
-0.0390
-0.0340
-0.0340
-0.0240
-0.0240
-0.0190
-0.0140
-0.0090
-0.0040
-0.0240
-0.0140
0.0049
-0.0140
-0.0140
-0.0140
-0.0090
-0.0240
-0.0090
-0.0240
-0.0290
-0.0240
-0.0140
-0.0140
-0.0090
-0.0140
0.0000
0.0098
0.0146
0.0146
0.0293
0.0293
0.0244
0.0342
0.0244
0.0195
0.0244
0.0244
0.0342
0.0244
0.0146
0.0195
0.0146
0.0195
0.0244
0.0098
0.0098
0.0098
0.0146
0.0195
0.0049
0.0146
0.0146
0.0146
0.0049
0.0049
0.0049
0.0098
0.0244
0.0244
0.0342
0.0586
0.0732
0.0830
0.0977
0.1025
0.0977
0.1074
0.1123
0.1025
0.0928
0.0928
0.0977
0.0684
0.0488
0.0391
0.0293
0.0146
0.0293
0.0293
0.0098
0.0000
0.0000
0.0000
0.0000
-0.0140
-0.0240
-0.0240
-0.0190
-0.0090
-0.0290
-0.0340
-0.0140
0.0049
0.0439
0.0098
-0.0190
-0.0090
-0.2440
-0.3800
-0.7810
-1.0150
-1.0540
-0.9910
-0.8350
-0.6540
-0.4730
-0.3850
-0.1700
-0.0780
-0.0090
0.0146
0.0586
0.0879
0.1025
0.0977
0.1123
0.1172
0.1318
0.1270
0.1172
0.1172
0.1270
0.1221
0.1416
0.1416
0.1318
0.1318
0.1465
0.1562
0.1562
0.1562
0.1660
0.1660
0.1904
0.1904
0.1807
0.1807
0.2051
0.2197
0.2148
0.2051
0.2295
0.2344
0.2441
0.2539
0.2588
0.2539
0.2588
0.2734
0.2686
0.2637
0.2539
0.2490
0.2588
0.2588
0.2441
0.2246
0.2148
0.2148
0.2051
0.1855
0.1660
0.1611
0.1660
0.1416
0.1270
0.1172
0.1123
0.1074
0.1172
0.1123
0.1025
0.0977
0.1123
0.1123
0.1172
0.1074
0.1025
0.1318
0.1367
0.1367
0.1318
0.1318
0.1367
0.1416
0.1270
0.1172
0.1367
0.1367
0.1367
0.1367
0.1416
0.1318
0.1416
0.1514
0.1465
0.1318
0.1416
0.1416
0.1465
0.1270
0.1416
0.1221
0.1318
0.1318
0.1367
0.1318
0.1318
0.1367
0.1416
0.1416
0.1416
0.1367
0.1367
0.1416
0.1514
0.1221
0.1172
0.1221
0.1270
0.1270
0.1221
0.1221
0.1318
0.1367
0.1318
0.1318
0.1270
0.1172
0.1270
0.1270
0.1221
0.1074
0.0928
0.0879
0.0781
0.0684
0.0684
0.0635
0.0586
0.0684
0.0537
0.0439
0.0439
0.0488
0.0586
0.0537
0.0488
0.0488
0.0635
0.0586
0.0537
0.0488
0.0537
0.0684
0.0830
0.0391
-0.0090
-0.0340
-0.3510
-0.7320
-1.0350
-1.0740
-1.1180
-0.9030
-0.7170
-0.6290
-0.4830
-0.2780
-0.1170
-0.0780
-0.0140
0.0293
0.0488
0.0537
0.0732
0.0537
0.0537
0.0586
0.0684
0.0781
0.0830
0.0781
0.0684
0.0781
0.0879
0.0928
0.0928
0.0879
0.1025
0.1123
0.1270
0.1221
0.1221
0.1270
0.1465
0.1611
0.1562
0.1660
0.1953
0.2002
0.2100
0.2148
0.2344
0.2490
0.2637
0.2734
0.2832
0.2881
0.2930
0.2979
0.3076
0.2930
0.2783
0.2734
0.2441
0.2295
0.2148
0.1904
0.1465
0.1221
0.1172
0.1123
0.0781
0.0781
0.0732
0.0684
0.0586
0.0391
0.0244
0.0195
0.0195
0.0000
-0.0430
-0.0530
-0.0680
-0.0830
-0.1020
-0.1120
-0.1270
-0.1170
-0.1170
-0.1120
-0.1070
-0.1170
-0.0870
-0.0780
-0.0730
-0.0830
-0.0630
-0.0530
-0.0290
-0.0090
-0.0040
-0.0040
0.0146
0.0342
0.0439
0.0391
0.0342
0.0391
0.0391
0.0439
0.0391
0.0293
0.0244
0.0293
0.0391
0.0146
0.0049
0.0049
0.0049
0.0000
0.0000
-0.0040
-0.0040
0.0098
0.0244
0.0244
0.0244
0.0293
0.0488
0.0488
0.0488
0.0439
0.0537
0.0586
0.0781
0.0781
0.0684
0.0732
0.0830
0.0928
0.0928
0.0830
0.0781
0.0830
0.0830
0.0830
0.0781
0.0732
0.0830
0.0879
0.0879
0.0732
0.0781
0.0879
0.0977
0.0977
0.0928
0.0879
0.1025
0.1465
0.1611
0.1562
0.1562
0.1660
0.1758
0.1807
0.1562
0.1270
0.1025
0.0977
0.0830
0.0439
0.0146
0.0146
0.0244
0.0195
0.0195
0.0244
0.0342
0.0195
0.0293
0.0293
0.0098
0.0146
0.0244
0.0244
0.0195
0.0146
0.0342
0.0391
0.0488
0.0635
0.0879
0.0732
0.0391
-0.0390
-0.3020
-0.4930
-0.8740
-1.0880
-1.1180
-1.0540
-0.8780
-0.6830
-0.5220
-0.4340
-0.2440
-0.1070
-0.0290
0.0049
0.0537
0.0684
0.0635
0.0586
0.0732
0.0732
0.0830
0.0781
0.0781
0.0977
0.1123
0.1172
0.1172
0.1270
0.1318
0.1416
0.1514
0.1465
0.1514
0.1416
0.1562
0.1660
0.1562
0.1562
0.1611
0.1758
0.1855
0.1855
0.1904
0.2051
0.2393
0.2441
0.2539
0.2588
0.2832
0.2979
0.2881
0.2930
0.2881
0.2783
0.2734
0.2930
0.2686
0.2588
0.2441
0.2490
0.2197
0.2051
0.1758
0.1562
0.1465
0.1514
0.1270
0.0928
0.0879
0.0879
0.0781
0.0586
0.0439
0.0488
0.0586
0.0586
0.0439
0.0391
0.0342
0.0342
0.0586
0.0635
0.0830
0.1318
0.2344
0.3076
0.4443
0.5908
0.7764
0.8740
1.0986
1.2500
1.2646
1.2354
1.1279
0.9424
0.7275
0.6104
0.3613
0.1318
-0.0140
-0.0340
-0.0580
-0.0390
-0.0430
-0.0090
0.0244
0.0293
0.0244
0.0049
-0.0390
-0.0730
-0.0830
-0.0870
-0.1070
-0.1070
-0.1220
-0.1270
-0.1510
-0.1850
-0.2000
-0.2000
-0.2100
-0.2290
-0.2440
-0.2340
-0.2240
-0.2730
-0.2630
-0.2730
-0.2630
-0.2340
-0.2530
-0.2680
-0.2880
-0.3020
-0.3070
-0.3120
-0.3460
-0.3660
-0.3560
-0.3610
-0.3610
-0.3510
-0.3410
-0.3360
-0.2880
-0.2780
-0.2580
-0.2440
-0.2100
-0.1800
-0.1660
-0.1610
-0.1220
-0.0970
-0.0730
-0.0680
-0.0530
-0.0340
-0.0040
0.0098
0.0244
0.0195
0.0342
0.0391
0.0488
0.0586
0.0635
0.0537
0.0537
0.0635
0.0635
0.0537
0.0488
0.0635
0.0732
0.0684
0.0684
0.0684
0.0732
0.0732
0.0732
0.0781
0.0635
0.0684
0.0684
0.0732
0.0684
0.0586
0.0488
0.0488
0.0537
0.0439
0.0293
0.0439
0.0635
0.0537
0.0488
0.0537
0.0488
0.0537
0.0684
0.0635
0.0488
0.0537
0.0684
0.0684
0.0635
0.0586
0.0635
0.0732
0.0684
0.0684
0.0586
0.0586
0.0586
0.0586
0.0537
0.0342
0.0342
0.0391
0.0439
0.0244
0.0195
0.0293
0.0195
0.0342
0.0342
0.0342
0.0342
0.0391
0.0488
0.0488
0.0439
0.0439
0.0342
0.0391
0.0537
0.0684
0.0342
0.0391
0.0635
0.0537
0.0488
0.0488
0.0488
0.0537
0.0586
0.0488
0.0293
0.0342
0.0439
0.0391
0.0244
0.0098
0.0098
0.0244
0.0244
0.0195
0.0049
0.0098
0.0244
0.0293
0.0244
0.0195
0.0391
0.0537
0.0537
0.0439
0.0391
0.0439
0.0439
0.0439
0.0439
0.0342
0.0342
0.0342
0.0293
0.0146
0.0049
0.0146
0.0146
0.0049
-0.0090
-0.0190
-0.0290
-0.0340
-0.0240
-0.0290
-0.0430
-0.0290
-0.0240
-0.0140
0.0049
0.0098
0.0000
0.0098
0.0342
0.0293
0.0098
0.0146
0.0244
0.0293
0.0293
0.0293
0.0146
0.0244
0.0293
0.0293
0.0293
0.0244
0.0439
0.0537
0.0732
0.0732
0.0635
0.0586
0.0586
0.0635
0.0488
0.0391
0.0439
0.0537
0.0488
0.0342
0.0244
0.0293
0.0293
0.0342
0.0342
0.0293
0.0342
0.0391
0.0488
0.0342
0.0293
0.0244
0.0244
0.0391
0.0293
0.0293
0.0244
0.0342
0.0488
0.0586
0.0781
0.0293
0.0000
-0.1020
-0.3900
-0.7610
-1.0300
-1.1180
-1.1130
-0.9570
-0.7560
-0.6780
-0.5020
-0.3070
-0.1410
-0.0830
-0.0190
0.0488
0.0830
0.0879
0.0928
0.0879
0.1172
0.1318
0.1221
0.1074
0.1172
0.1172
0.1270
0.1318
0.1318
0.1318
0.1514
0.1514
0.1660
0.1660
0.1709
0.1758
0.1904
0.1953
0.1904
0.1904
0.1855
0.2002
0.2148
0.2051
0.2197
0.2295
0.2441
0.2734
0.2686
0.2734
0.2783
0.2979
0.3076
0.2979
0.2979
0.2930
0.3076
0.3027
0.2881
0.2783
0.2783
0.2734
0.2686
0.2441
0.2148
0.1953
0.1709
0.1514
0.1123
0.0928
0.0684
0.0488
0.0342
0.0244
0.0098
-0.0090
-0.0190
-0.0090
0.0000
-0.0240
-0.0090
-0.0040
0.0049
0.0098
0.0146
0.0049
0.0098
0.0195
0.0098
0.0049
-0.0040
0.0049
0.0098
0.0195
0.0146
0.0049
0.0098
0.0098
0.0146
0.0049
-0.0040
-0.0040
0.0098
0.0000
-0.0090
-0.0140
-0.0140
-0.0040
-0.0040
-0.0040
-0.0140
-0.0140
-0.0090
-0.0090
-0.0190
-0.0290
-0.0290
-0.0240
-0.0290
-0.0430
-0.0390
-0.0390
-0.0430
-0.0290
-0.0480
-0.0530
-0.0430
-0.0340
-0.0390
-0.0390
-0.0430
-0.0530
-0.0580
-0.0530
-0.0430
-0.0530
-0.0240
-0.0140
0.0000
0.0098
0.0098
0.0049
0.0293
0.0244
0.0098
0.0000
-0.0140
-0.0240
-0.0480
-0.0580
-0.0730
-0.0970
-0.1070
-0.1070
-0.1020
-0.1220
-0.1220
-0.1220
-0.1120
-0.1170
-0.1070
-0.1120
-0.1170
-0.0970
-0.0970
-0.0970
-0.1070
-0.0870
-0.0780
-0.0680
-0.0530
-0.0970
-0.1610
-0.1950
-0.5460
-0.9420
-1.2060
-1.2350
-1.2640
-1.0200
-0.8250
-0.7370
-0.5710
-0.3510
-0.1950
-0.1610
-0.0970
-0.0480
-0.0140
0.0000
-0.0040
-0.0140
-0.0040
0.0049
0.0195
0.0049
0.0000
0.0049
0.0098
0.0146
0.0098
0.0049
-0.0040
-0.0040
0.0000
-0.0140
-0.0290
-0.0340
-0.0390
-0.0340
-0.0240
-0.0190
-0.0240
-0.0090
0.0098
0.0244
0.0195
0.0391
0.0684
0.0879
0.1025
0.1074
0.1221
0.1318
0.1465
0.1514
0.1562
0.1514
0.1611
0.1709
0.1416
0.1318
0.0977
0.0928
0.0781
0.0488
0.0098
0.0000
-0.0290
-0.0340
-0.0630
-0.0730
-0.0920
-0.1020
-0.0970
-0.0920
-0.1020
-0.1120
-0.0970
-0.0920
-0.0870
-0.1070
-0.1120
-0.0920
-0.0830
-0.0870
-0.0870
-0.0920
-0.0970
-0.0830
-0.0780
-0.0780
-0.0870
-0.0780
-0.0730
-0.0730
-0.0780
-0.0730
-0.0680
-0.0830
-0.0530
-0.0780
-0.0920
-0.0870
-0.0780
-0.0730
-0.0680
-0.0780
-0.0870
-0.0730
-0.0630
-0.0730
-0.0780
-0.0680
-0.0780
-0.0730
-0.0730
-0.0870
-0.0870
-0.0920
-0.0920
-0.0830
-0.0780
-0.0970
-0.0920
-0.0830
-0.0780
-0.0870
-0.0920
-0.0780
-0.0730
-0.0730
-0.0680
-0.0830
-0.0780
-0.0730
-0.0630
-0.0580
-0.0480
-0.0390
-0.0090
0.0000
0.0049
0.0000
-0.0040
0.0146
0.0049
0.0000
-0.0140
-0.0190
-0.0290
-0.0430
-0.0730
-0.0920
-0.0920
-0.0920
-0.0870
-0.0970
-0.1070
-0.1070
-0.0970
-0.0870
-0.1070
-0.1120
-0.1120
-0.0920
-0.1120
-0.1120
-0.1070
-0.1020
-0.1120
-0.0680
-0.0680
-0.0870
-0.1220
-0.1270
-0.2630
-0.5810
-0.9470
-1.1270
-1.2010
-1.1180
-0.9220
-0.8300
-0.6490
-0.4490
-0.2630
-0.1900
-0.1220
-0.0580
-0.0090
0.0000
0.0146
0.0244
0.0244
0.0195
0.0488
0.0439
0.0391
0.0391
0.0439
0.0391
0.0586
0.0586
0.0439
0.0537
0.0732
0.0732
0.0684
0.0684
0.0928
0.1025
0.1025
0.1074
0.1025
0.1074
0.1221
0.1367
0.1367
0.1367
0.1465
0.1758
0.1855
0.1904
0.1953
0.1953
0.2148
0.2344
0.2295
0.2148
0.2148
0.2148
0.2100
0.1953
0.1709
0.1562
0.1367
0.1221
0.0879
0.0781
0.0586
0.0439
0.0342
0.0293
-0.0140
-0.0090
-0.0140
-0.0240
-0.0290
-0.0390
-0.0530
-0.0530
-0.0340
-0.0480
-0.0480
-0.0580
-0.0730
-0.0480
-0.0430
-0.0530
-0.0530
-0.0580
-0.0290
-0.0190
0.0244
0.0928
0.2295
0.3174
0.4639
0.6299
0.8350
0.9229
1.0791
1.1475
1.0352
0.9668
0.7861
0.6250
0.3613
0.2539
0.0342
-0.1360
-0.1950
-0.1750
-0.1270
-0.1660
-0.1220
-0.0970
-0.0680
-0.0780
-0.0970
-0.1120
-0.1660
-0.1800
-0.1900
-0.1950
-0.2000
-0.2050
-0.2190
-0.2240
-0.2630
-0.2780
-0.2780
-0.2780
-0.2730
-0.2880
-0.3020
-0.3120
-0.2970
-0.2680
-0.2730
-0.2530
-0.2340
-0.2490
-0.2630
-0.2730
-0.3020
-0.3070
-0.3360
-0.3460
-0.3610
-0.3760
-0.3800
-0.3610
-0.3610
-0.3660
-0.3360
-0.3320
-0.3220
-0.3020
-0.2830
-0.2780
-0.2630
-0.2340
-0.2290
-0.2240
-0.2050
-0.1800
-0.1610
-0.1510
-0.1310
-0.1270
-0.0970
-0.0920
-0.0780
-0.0680
-0.0730
-0.0630
-0.0430
-0.0430
-0.0390
-0.0390
-0.0430
-0.0340
-0.0240
-0.0290
-0.0390
-0.0340
-0.0090
-0.0140
-0.0240
-0.0290
-0.0290
-0.0240
-0.0240
-0.0240
-0.0430
-0.0430
-0.0390
-0.0390
-0.0480
-0.0530
-0.0530
-0.0290
-0.0290
-0.0290
-0.0240
-0.0340
-0.0240
-0.0140
-0.0190
-0.0390
-0.0390
-0.0340
-0.0290
-0.0390
-0.0480
-0.0480
-0.0530
-0.0530
-0.0630
-0.0680
-0.0680
-0.0480
-0.0580
-0.0530
-0.0530
-0.0580
-0.0580
-0.0530
-0.0430
-0.0480
-0.0530
-0.0340
-0.0290
-0.0340
-0.0430
-0.0390
-0.0340
-0.0390
-0.0190
-0.0340
-0.0340
-0.0340
-0.0290
-0.0340
-0.0480
-0.0530
-0.0580
-0.0530
-0.0480
-0.0530
-0.0530
-0.0480
-0.0390
-0.0290
-0.0240
-0.0340
-0.0340
-0.0140
-0.0140
-0.0140
-0.0290
-0.0390
-0.0140
-0.0140
-0.0190
-0.0290
-0.0240
-0.0190
-0.0090
-0.0040
-0.0140
-0.0190
-0.0240
-0.0190
-0.0090
-0.0240
-0.0340
-0.0240
-0.0290
-0.0240
-0.0430
-0.0240
-0.0340
-0.0340
-0.0290
-0.0240
-0.0340
-0.0340
-0.0240
-0.0290
-0.0390
-0.0390
-0.0430
-0.0340
-0.0340
-0.0390
-0.0430
-0.0430
-0.0340
-0.0340
-0.0390
-0.0430
-0.0290
-0.0430
-0.0340
-0.0430
-0.0630
-0.0580
-0.0580
-0.0680
-0.0630
-0.0830
-0.0870
-0.0630
-0.0480
-0.0480
-0.0390
-0.0290
-0.0140
-0.0090
-0.0090
-0.0090
-0.0290
-0.0240
-0.0190
-0.0390
-0.0580
-0.0730
-0.0780
-0.0870
-0.0970
-0.0970
-0.1020
-0.1020
-0.1020
-0.1020
-0.1310
-0.1310
-0.1170
-0.1170
-0.1310
-0.1410
-0.1460
-0.1460
-0.1310
-0.1410
-0.1410
-0.1170
-0.0970
-0.1170
-0.1750
-0.2140
-0.5370
-0.9080
-1.1960
-1.2400
-1.2790
-1.0930
-0.8880
-0.7860
-0.6340
-0.4440
-0.2630
-0.2240
-0.1560
-0.0970
-0.0830
-0.0870
-0.0680
-0.0530
-0.0430
-0.0530
-0.0580
-0.0530
-0.0430
-0.0390
-0.0340
-0.0430
-0.0340
-0.0340
-0.0240
-0.0140
-0.0290
-0.0140
0.0000
0.0195
0.0195
0.0146
0.0146
0.0293
0.0488
0.0439
0.0439
0.0537
0.0732
0.0830
0.0928
0.0928
0.0977
0.1025
0.1367
0.1465
0.1318
0.1318
0.1416
0.1514
0.1465
0.1416
0.1514
0.1660
0.1709
0.1758
0.1758
0.1318
0.1221
0.1221
0.0928
0.0586
0.0342
0.0146
0.0000
0.0049
-0.0390
-0.0480
-0.0580
-0.0580
-0.0730
-0.0780
-0.0920
-0.0970
-0.0970
-0.0870
-0.0830
-0.0870
-0.0730
-0.0680
-0.0530
-0.0430
-0.0390
-0.0290
-0.0040
-0.0040
-0.0190
-0.0240
-0.0240
-0.0140
-0.0140
-0.0190
-0.0340
-0.0390
-0.0290
-0.0340
-0.0480
-0.0730
-0.0870
-0.0920
-0.0970
-0.1070
-0.1270
-0.1310
-0.1360
-0.1220
-0.1310
-0.1410
-0.1460
-0.1220
-0.1220
-0.1170
-0.1070
-0.0970
-0.0780
-0.0680
-0.0530
-0.0730
-0.0680
-0.0630
-0.0580
-0.0730
-0.0920
-0.1020
-0.1020
-0.0970
-0.1120
-0.1310
-0.1560
-0.1610
-0.1610
-0.1660
-0.1700
-0.1610
-0.1460
-0.1410
-0.1410
-0.1410
-0.1310
-0.1220
-0.1220
-0.1170
-0.1220
-0.1220
-0.1220
-0.1270
-0.1170
-0.1120
-0.1310
-0.1170
-0.0920
-0.0920
-0.1020
-0.1120
-0.1170
-0.1020
-0.0970
-0.1070
-0.0970
-0.1070
-0.1120
-0.1070
-0.1120
-0.1120
-0.1020
-0.0680
-0.0290
-0.0530
-0.0970
-0.2780
-0.6150
-0.7950
-1.1470
-1.2500
-1.1960
-1.0840
-0.8590
-0.6730
-0.5120
-0.4150
-0.2240
-0.1360
-0.0830
-0.0580
-0.0190
0.0049
0.0098
0.0146
0.0098
0.0195
0.0244
0.0293
0.0391
0.0342
0.0342
0.0537
0.0488
0.0586
0.0537
0.0537
0.0684
0.0879
0.0781
0.0732
0.0830
0.0879
0.1416
0.1221
0.1074
0.1172
0.1270
0.1318
0.1562
0.1660
0.1758
0.1904
0.2051
0.2295
0.2490
0.2539
0.2588
0.2686
0.2832
0.2832
0.2783
0.2734
0.2783
0.2832
0.2734
0.2295
0.2002
0.2002
0.1855
0.1562
0.1367
0.1318
0.1221
0.1416
0.1221
0.1123
0.1074
0.1221
0.1318
0.1318
0.1074
0.1025
0.1123
0.1123
0.1172
0.0977
0.0879
0.0781
0.0830
0.0635
0.0439
0.0439
0.0391
0.0244
0.0098
0.0049
0.0049
0.0049
0.0000
0.0000
-0.0090
-0.0190
-0.0190
-0.0190
-0.0240
-0.0390
-0.0630
-0.0580
-0.0580
-0.0730
-0.0920
-0.1070
-0.0970
-0.1070
-0.1120
-0.1170
-0.1220
-0.1170
-0.1170
-0.1170
-0.1270
-0.1310
-0.1270
-0.1220
-0.1120
-0.1360
-0.1460
-0.1410
-0.1360
-0.1410
-0.1510
-0.1510
-0.1560
-0.1610
-0.1560
-0.1700
-0.1750
-0.1800
-0.1510
-0.1410
-0.1220
-0.1070
-0.0920
-0.0870
-0.0780
-0.0630
-0.0870
-0.0830
-0.0780
-0.0830
-0.1070
-0.1270
-0.1270
-0.1660
-0.1610
-0.1610
-0.1800
-0.1950
-0.1950
-0.1950
-0.1950
-0.2140
-0.2140
-0.2050
-0.2000
-0.2190
-0.2240
-0.2190
-0.2240
-0.2140
-0.2240
-0.2190
-0.2050
-0.1850
-0.1750
-0.2240
-0.3070
-0.6100
-0.9910
-1.1130
-1.2690
-1.2980
-1.0930
-0.9810
-0.7810
-0.6250
-0.4540
-0.3710
-0.2580
-0.1900
-0.1360
-0.1120
-0.1170
-0.1170
-0.0920
-0.0870
-0.0780
-0.0970
-0.0780
-0.0730
-0.0630
-0.0580
-0.0430
-0.0480
-0.0530
-0.0390
-0.0430
-0.0430
-0.0340
-0.0290
-0.0190
-0.0190
-0.0290
-0.0390
0.0049
0.0195
0.0000
-0.0140
0.0195
0.0146
0.0146
0.0391
0.0391
0.0391
0.0342
0.0488
0.0391
0.0342
0.0293
0.0244
0.0488
0.0439
0.0098
0.0146
0.0049
-0.0040
-0.0290
-0.0580
-0.0870
-0.0920
-0.1170
-0.1610
-0.2100
-0.2140
-0.2340
-0.2530
-0.2680
-0.2730
-0.3020
-0.3120
-0.3020
-0.3020
-0.3270
-0.3460
-0.3510
-0.3560
-0.3660
-0.3800
-0.3850
-0.3850
-0.3800
-0.3560
-0.3020
-0.2680
-0.1310
0.0342
0.2051
0.3076
0.5273
0.7324
0.8496
0.8936
0.9082
0.7080
0.4785
0.3711
0.1465
-0.0870
-0.2880
-0.3760
-0.4290
-0.3850
-0.3800
-0.3800
-0.3660
-0.3460
-0.3410
-0.3460
-0.3800
-0.4540
-0.4290
-0.4340
-0.4680
-0.4980
-0.5170
-0.5270
-0.5170
-0.5510
-0.6050
-0.6000
-0.6000
-0.6050
-0.6150
-0.6250
-0.6290
-0.6390
-0.6200
-0.6150
-0.6150
-0.6200
-0.5900
-0.6100
-0.6200
-0.6490
-0.6590
-0.6730
-0.6830
-0.6730
-0.6590
-0.6590
-0.6390
-0.6150
-0.6000
-0.5900
-0.5760
-0.5710
-0.5510
-0.5420
-0.5220
-0.5070
-0.4830
-0.4680
-0.4290
-0.3950
-0.3660
-0.3460
-0.3120
-0.2830
-0.2490
-0.2340
-0.2000
-0.1610
-0.1310
-0.1170
-0.0920
-0.0870
-0.0680
-0.0580
-0.0340
-0.0240
-0.0340
-0.0240
-0.0240
-0.0240
-0.0340
-0.0390
-0.0430
-0.0240
-0.0390
-0.0480
-0.0480
-0.0530
-0.0480
-0.0530
-0.0680
-0.0730
-0.0780
-0.0730
-0.0680
-0.0730
-0.0830
-0.0870
-0.0870
-0.0920
-0.0970
-0.1020
-0.1020
-0.0730
-0.0780
-0.0730
-0.0730
-0.0680
-0.0580
-0.0480
-0.0390
-0.0580
-0.0480
-0.0480
-0.0390
-0.0290
-0.0480
-0.0430
-0.0340
-0.0340
-0.0430
-0.0480
-0.0530
-0.0480
-0.0430
-0.0390
-0.0430
-0.0340
-0.0140
-0.0090
-0.0040
0.0146
0.0391
0.0537
0.0781
0.1025
0.0879
0.0928
0.1074
0.1123
0.1025
0.0928
0.0977
0.0928
0.0879
0.0781
0.0586
0.0439
0.0293
0.0244
-0.0090
-0.0390
-0.0290
-0.0480
-0.0730
-0.0830
-0.0730
-0.0920
-0.0970
-0.0730
-0.0680
-0.0580
-0.0530
-0.0680
-0.0390
-0.0390
-0.0340
-0.0190
-0.0040
0.0000
0.0146
0.0293
0.0244
0.0244
0.0537
0.0537
0.0342
0.0293
0.0244
0.0391
0.0488
0.0439
0.0342
0.0342
0.0537
0.0391
0.0146
0.0000
-0.0040
-0.0090
-0.0190
-0.0390
-0.0580
-0.0630
-0.0680
-0.0680
-0.0680
-0.0680
-0.0580
-0.0430
-0.0290
-0.0240
-0.0140
-0.0090
0.0049
0.0146
0.0146
-0.0190
-0.0290
-0.0290
-0.0340
-0.0530
-0.0630
-0.0630
-0.0780
-0.0870
-0.0920
-0.1120
-0.1270
-0.1270
-0.1360
-0.1460
-0.1700
-0.1800
-0.1900
-0.1950
-0.2000
-0.1900
-0.1750
-0.1660
-0.1850
-0.2580
-0.5460
-0.7080
-0.9960
-1.1420
-1.1670
-1.0740
-0.8440
-0.6390
-0.4630
-0.3800
-0.2190
-0.1020
-0.0340
0.0000
0.0391
0.0488
0.0537
0.0586
0.0684
0.0635
0.0488
0.0391
0.0244
0.0244
0.0146
0.0049
0.0000
0.0049
0.0098
0.0146
0.0244
0.0244
0.0488
0.0635
0.0879
0.1025
0.1172
0.1270
0.1660
0.1758
0.1807
0.1709
0.1660
0.1660
0.1562
0.1514
0.1416
0.1562
0.1660
0.1660
0.1611
0.1562
0.1514
0.1514
0.1562
0.1611
0.1514
0.1514
0.1562
0.1611
0.1318
0.1172
0.1025
0.0879
0.0830
0.0732
0.0537
0.0342
0.0342
0.0342
0.0195
-0.0190
-0.0390
-0.0480
-0.0680
-0.0870
-0.1120
-0.1270
-0.1460
-0.1510
-0.1850
-0.2000
-0.2290
-0.2440
-0.2440
-0.2490
-0.2530
-0.2390
-0.2140
-0.2000
-0.1700
-0.1510
-0.1360
-0.1270
-0.1170
-0.0920
-0.0830
-0.0780
-0.0730
-0.0680
-0.0530
-0.0430
-0.0430
-0.0630
-0.0390
-0.0430
-0.0530
-0.0580
-0.0580
-0.0580
-0.0480
-0.0680
-0.0970
-0.0970
-0.0970
-0.0970
-0.0920
-0.1020
-0.0920
-0.0920
-0.0920
-0.0970
-0.1120
-0.1220
-0.1170
-0.1120
-0.1170
-0.1170
-0.0780
-0.0680
-0.0480
-0.0340
-0.0390
-0.0390
-0.0190
-0.0240
-0.0190
-0.0290
-0.0340
-0.0390
-0.0530
-0.0580
